ｻﾝﾌﾟﾙ:	'20190322.dat
ﾌｧｲﾙ名:	20190322031.UDS
分析日時:	12:13:37, 10/18/2019
ｵﾍﾟﾚｰﾀ:	Ikezawa
ｺﾒﾝﾄ:	'

光度計
ﾓﾃﾞﾙ:	U-4000形分光光度計
ｼﾘｱﾙ No.:	'
ROM Ver.:	5111 03

装置条件
測定ﾓｰﾄﾞ:	波長ｽｷｬﾝ
ﾃﾞｰﾀﾓｰﾄﾞ:	%T
開始:	900.00 nm
終了:	300.00 nm
ｽｷｬﾝｽﾋﾟｰﾄﾞ:	120(300) nm/min
ｻﾝﾌﾟﾘﾝｸﾞ間隔:	0.50 nm
ｽﾘｯﾄ:	3.00 nm
ﾎﾄﾏﾙ電圧:	自動制御
光源切換ﾓｰﾄﾞ:	自動切換
光源切換波長:	350.00 nm
ﾍﾞｰｽﾗｲﾝ設定:	ﾕｰｻﾞ 1
高分解能測定:	On
--- 近赤外 ---
ｽﾘｯﾄ:	1.00 nm
PbS感度:	1
検知器切換補正:	補正なし
検知器切換波長:	850 nm
--------------
ｾﾙ長:	10.0 mm

ﾋﾟｰｸ検出
検出方法:	Rectangular
感度:	1
しきい値:	0.0100

ﾋﾟｰｸ
ﾋﾟｰｸ No.	開始 (nm)	ﾋﾟｰｸ波長 (nm)	終了 (nm)	高さ (%T)	面積 (%T*nm)	ﾊﾞﾚｰ (nm)	ﾊﾞﾚｰ (%T)
1	900.00	893.00	883.50	-333.129	3392.100	883.50	9587.341
2	883.50	876.50	874.50	-357.058	5822.418	874.50	1286.042
3	874.50	871.50	867.00	-11484.619	-1667.451	867.00	5162.169
4	867.00	864.00	860.00	-1013.840	3574.592	860.00	4707.613
5	860.00	856.50	852.00	-844.105	1255.548	852.00	3325.222
6	852.00	837.50	835.00	9.286	3534.467	835.00	12.439
7	835.00	821.50	819.00	10.307	183.568	819.00	11.384
8	819.00	809.50	803.00	10.424	180.787	803.00	11.306
9	803.00	799.50	796.00	10.270	80.433	796.00	10.796
10	796.00	789.00	788.00	10.058	89.062	788.00	10.653
11	788.00	763.00	752.50	9.653	364.336	752.50	10.145
12	752.50	750.00	741.00	9.745	120.563	741.00	10.282
13	741.00	737.50	668.50	10.134	842.202	668.50	13.219
14	668.50	618.50	586.00	6.721	677.224	586.00	8.168
15	586.00	486.00	484.00	0.136	216.026	484.00	0.205
16	484.00	470.50	466.00	0.057	2.303	466.00	0.190
17	466.00	462.00	456.50	0.037	1.177	456.50	0.168
18	456.50	450.50	449.50	0.020	0.748	449.50	0.202
19	449.50	443.00	418.50	0.038	5.939	418.50	0.535
20	418.50	414.50	392.50	0.383	65.994	392.50	7.296
21	392.50	379.00	364.00	4.920	184.177	364.00	8.422
22	364.00	351.00	348.00	5.270	116.821	348.00	9.832
23	348.00	346.50	339.50	3.110	48.703	339.50	6.400
24	339.50	337.50	335.00	2.363	18.421	335.00	5.472
25	335.00	329.50	327.00	-0.616	19.187	327.00	2.830
26	327.00	325.00	320.00	-0.145	13.975	320.00	6.062
27	320.00	317.00	308.50	-1.701	17.118	308.50	3.746

ﾃﾞｰﾀﾘｽﾄ
nm	%T
900.00	16.099
899.00	-12.572
898.00	47.317
897.00	-71.558
896.00	-219.095
895.00	-324.757
894.00	71.556
893.00	-333.129
892.00	126.457
891.00	-421.136
890.00	19.407
889.00	-734.699
888.00	80.425
887.00	254.569
886.00	-0.227
885.00	76.276
884.00	318.766
883.00	640.889
882.00	610.150
881.00	155.526
880.00	-524.225
879.00	33.079
878.00	11.661
877.00	-1.951
876.00	-276.477
875.00	19.371
874.00	174.985
873.00	-102.210
872.00	-6.893
871.00	416.383
870.00	-453.340
869.00	774.107
868.00	15.827
867.00	5162.169
866.00	-3.646
865.00	-56.594
864.00	-1013.840
863.00	625.497
862.00	9.443
861.00	12.162
860.00	4707.613
859.00	28.988
858.00	8.681
857.00	21.153
856.00	-4.305
855.00	413.498
854.00	-18.344
853.00	-839.120
852.00	3325.222
851.00	1964.268
850.00	1245.622
849.00	8.017
848.00	13.936
847.00	14.567
846.00	12.167
845.00	12.554
844.00	11.598
843.00	11.188
842.00	9.997
841.00	9.935
840.00	12.202
839.00	11.277
838.00	11.747
837.00	11.422
836.00	11.703
835.00	12.439
834.00	11.467
833.00	11.761
832.00	11.860
831.00	11.833
830.00	10.462
829.00	11.526
828.00	11.640
827.00	11.795
826.00	11.263
825.00	11.511
824.00	11.300
823.00	10.738
822.00	11.335
821.00	11.098
820.00	11.328
819.00	11.384
818.00	11.320
817.00	11.297
816.00	11.061
815.00	11.380
814.00	11.087
813.00	11.191
812.00	11.154
811.00	10.558
810.00	10.668
809.00	10.816
808.00	10.621
807.00	10.752
806.00	10.856
805.00	10.768
804.00	10.821
803.00	11.306
802.00	10.945
801.00	10.975
800.00	10.486
799.00	10.728
798.00	10.635
797.00	10.371
796.00	10.796
795.00	10.292
794.00	10.590
793.00	10.481
792.00	10.557
791.00	10.385
790.00	10.368
789.00	10.058
788.00	10.653
787.00	10.386
786.00	10.636
785.00	10.455
784.00	10.429
783.00	10.449
782.00	10.414
781.00	10.316
780.00	10.409
779.00	10.380
778.00	10.404
777.00	10.412
776.00	10.130
775.00	10.233
774.00	10.133
773.00	10.018
772.00	9.864
771.00	10.185
770.00	10.130
769.00	10.043
768.00	10.099
767.00	10.082
766.00	9.845
765.00	10.261
764.00	9.810
763.00	9.653
762.00	9.718
761.00	9.902
760.00	9.858
759.00	9.784
758.00	9.993
757.00	9.999
756.00	10.072
755.00	10.027
754.00	9.964
753.00	10.073
752.00	10.071
751.00	10.018
750.00	9.745
749.00	10.119
748.00	10.134
747.00	10.134
746.00	9.953
745.00	10.183
744.00	10.097
743.00	10.031
742.00	10.076
741.00	10.282
740.00	10.167
739.00	10.261
738.00	10.180
737.00	10.335
736.00	10.163
735.00	10.287
734.00	10.137
733.00	10.444
732.00	10.434
731.00	10.404
730.00	10.358
729.00	10.652
728.00	10.524
727.00	10.597
726.00	10.498
725.00	10.791
724.00	10.734
723.00	10.777
722.00	10.638
721.00	10.706
720.00	10.899
719.00	10.912
718.00	11.169
717.00	10.993
716.00	10.967
715.00	11.216
714.00	11.185
713.00	11.248
712.00	11.208
711.00	11.365
710.00	11.508
709.00	11.408
708.00	11.546
707.00	11.487
706.00	11.484
705.00	11.737
704.00	11.719
703.00	11.721
702.00	11.836
701.00	11.844
700.00	11.865
699.00	11.940
698.00	11.912
697.00	12.068
696.00	12.028
695.00	11.953
694.00	12.005
693.00	12.037
692.00	12.214
691.00	12.123
690.00	12.090
689.00	12.172
688.00	12.199
687.00	12.178
686.00	12.306
685.00	12.291
684.00	12.283
683.00	12.359
682.00	12.361
681.00	12.447
680.00	12.408
679.00	12.457
678.00	12.535
677.00	12.445
676.00	12.558
675.00	12.645
674.00	12.769
673.00	12.791
672.00	12.851
671.00	12.937
670.00	13.059
669.00	13.044
668.00	13.131
667.00	13.108
666.00	13.056
665.00	12.934
664.00	12.690
663.00	12.631
662.00	12.165
661.00	11.736
660.00	11.347
659.00	10.948
658.00	10.465
657.00	9.991
656.00	9.570
655.00	9.187
654.00	8.883
653.00	8.580
652.00	8.532
651.00	8.361
650.00	8.328
649.00	8.315
648.00	8.149
647.00	8.064
646.00	8.002
645.00	7.938
644.00	7.894
643.00	7.724
642.00	7.709
641.00	7.598
640.00	7.536
639.00	7.487
638.00	7.373
637.00	7.365
636.00	7.227
635.00	7.218
634.00	7.151
633.00	7.116
632.00	7.003
631.00	7.011
630.00	6.922
629.00	6.954
628.00	6.831
627.00	6.853
626.00	6.772
625.00	6.781
624.00	6.822
623.00	6.777
622.00	6.683
621.00	6.739
620.00	6.759
619.00	6.778
618.00	6.745
617.00	6.763
616.00	6.806
615.00	6.817
614.00	6.743
613.00	6.848
612.00	6.873
611.00	6.954
610.00	6.901
609.00	6.983
608.00	7.055
607.00	7.071
606.00	7.134
605.00	7.202
604.00	7.244
603.00	7.360
602.00	7.356
601.00	7.463
600.00	7.510
599.00	7.567
598.00	7.657
597.00	7.722
596.00	7.793
595.00	7.804
594.00	7.867
593.00	7.954
592.00	7.981
591.00	8.055
590.00	8.135
589.00	8.111
588.00	8.143
587.00	8.149
586.00	8.168
585.00	8.079
584.00	8.069
583.00	7.986
582.00	7.890
581.00	7.727
580.00	7.652
579.00	7.460
578.00	7.264
577.00	7.060
576.00	6.892
575.00	6.658
574.00	6.434
573.00	6.160
572.00	5.970
571.00	5.672
570.00	5.478
569.00	5.235
568.00	4.960
567.00	4.670
566.00	4.436
565.00	4.148
564.00	3.991
563.00	3.771
562.00	3.546
561.00	3.310
560.00	3.152
559.00	2.950
558.00	2.755
557.00	2.650
556.00	2.496
555.00	2.401
554.00	2.197
553.00	2.070
552.00	1.957
551.00	1.776
550.00	1.721
549.00	1.623
548.00	1.536
547.00	1.446
546.00	1.422
545.00	1.323
544.00	1.259
543.00	1.190
542.00	1.133
541.00	1.046
540.00	1.006
539.00	0.946
538.00	0.893
537.00	0.812
536.00	0.797
535.00	0.802
534.00	0.760
533.00	0.688
532.00	0.648
531.00	0.641
530.00	0.597
529.00	0.566
528.00	0.539
527.00	0.522
526.00	0.510
525.00	0.460
524.00	0.460
523.00	0.422
522.00	0.415
521.00	0.453
520.00	0.364
519.00	0.386
518.00	0.357
517.00	0.368
516.00	0.338
515.00	0.356
514.00	0.299
513.00	0.306
512.00	0.282
511.00	0.270
510.00	0.246
509.00	0.205
508.00	0.261
507.00	0.255
506.00	0.180
505.00	0.183
504.00	0.199
503.00	0.224
502.00	0.198
501.00	0.194
500.00	0.166
499.00	0.223
498.00	0.200
497.00	0.207
496.00	0.159
495.00	0.182
494.00	0.163
493.00	0.150
492.00	0.146
491.00	0.170
490.00	0.192
489.00	0.230
488.00	0.163
487.00	0.160
486.00	0.136
485.00	0.143
484.00	0.205
483.00	0.142
482.00	0.118
481.00	0.118
480.00	0.147
479.00	0.061
478.00	0.137
477.00	0.106
476.00	0.115
475.00	0.082
474.00	0.136
473.00	0.090
472.00	0.135
471.00	0.113
470.00	0.092
469.00	0.115
468.00	0.144
467.00	0.119
466.00	0.190
465.00	0.087
464.00	0.092
463.00	0.103
462.00	0.037
461.00	0.082
460.00	0.082
459.00	0.170
458.00	0.083
457.00	0.097
456.00	0.054
455.00	0.090
454.00	0.104
453.00	0.044
452.00	0.068
451.00	0.074
450.00	0.131
449.00	0.108
448.00	0.152
447.00	0.059
446.00	0.085
445.00	0.074
444.00	0.209
443.00	0.038
442.00	0.086
441.00	0.113
440.00	0.186
439.00	0.247
438.00	0.226
437.00	0.152
436.00	0.268
435.00	0.132
434.00	-0.001
433.00	0.227
432.00	0.233
431.00	0.266
430.00	0.191
429.00	0.186
428.00	0.233
427.00	0.191
426.00	0.175
425.00	0.183
424.00	0.150
423.00	0.271
422.00	0.338
421.00	0.207
420.00	0.098
419.00	0.266
418.00	0.414
417.00	0.530
416.00	0.394
415.00	0.395
414.00	0.669
413.00	0.488
412.00	0.688
411.00	0.735
410.00	0.564
409.00	1.015
408.00	1.031
407.00	1.223
406.00	1.333
405.00	1.535
404.00	1.650
403.00	2.408
402.00	2.459
401.00	2.987
400.00	3.590
399.00	4.129
398.00	4.773
397.00	5.272
396.00	5.916
395.00	6.250
394.00	6.717
393.00	6.584
392.00	6.830
391.00	7.245
390.00	6.864
389.00	6.446
388.00	6.460
387.00	5.958
386.00	6.116
385.00	5.388
384.00	5.886
383.00	5.599
382.00	5.410
381.00	5.406
380.00	5.259
379.00	4.920
378.00	5.172
377.00	5.252
376.00	5.820
375.00	5.534
374.00	5.877
373.00	6.015
372.00	6.565
371.00	7.303
370.00	7.313
369.00	6.829
368.00	8.202
367.00	7.782
366.00	7.921
365.00	7.915
364.00	8.422
363.00	8.125
362.00	8.043
361.00	8.082
360.00	8.377
359.00	6.977
358.00	6.621
357.00	6.393
356.00	6.831
355.00	7.560
354.00	6.049
353.00	5.450
352.00	6.734
351.00	5.270
350.00	6.648
349.00	7.756
348.00	9.832
347.00	6.291
346.00	5.927
345.00	5.270
344.00	5.175
343.00	8.252
342.00	6.293
341.00	5.394
340.00	5.215
339.00	3.694
338.00	3.994
337.00	3.724
336.00	2.880
335.00	5.472
334.00	3.553
333.00	4.617
332.00	4.883
331.00	2.273
330.00	1.152
329.00	0.919
328.00	0.732
327.00	2.830
326.00	1.310
325.00	-0.145
324.00	0.812
323.00	-0.126
322.00	1.005
321.00	3.159
320.00	6.062
319.00	-1.460
318.00	0.319
317.00	-1.701
316.00	1.625
315.00	0.801
314.00	2.457
313.00	2.499
312.00	0.507
311.00	2.526
310.00	2.842
309.00	2.592
308.00	1.971
307.00	-0.207
306.00	-0.332
305.00	3.798
304.00	-0.404
303.00	2.051
302.00	0.561
301.00	-3.645
300.00	1.629

