ｻﾝﾌﾟﾙ:	'20190322.dat
ﾌｧｲﾙ名:	20190322032.UDS
分析日時:	12:27:02, 10/18/2019
ｵﾍﾟﾚｰﾀ:	Ikezawa
ｺﾒﾝﾄ:	'

光度計
ﾓﾃﾞﾙ:	U-4000形分光光度計
ｼﾘｱﾙ No.:	'
ROM Ver.:	5111 03

装置条件
測定ﾓｰﾄﾞ:	波長ｽｷｬﾝ
ﾃﾞｰﾀﾓｰﾄﾞ:	%T
開始:	900.00 nm
終了:	300.00 nm
ｽｷｬﾝｽﾋﾟｰﾄﾞ:	120(300) nm/min
ｻﾝﾌﾟﾘﾝｸﾞ間隔:	0.50 nm
ｽﾘｯﾄ:	3.00 nm
ﾎﾄﾏﾙ電圧:	自動制御
光源切換ﾓｰﾄﾞ:	自動切換
光源切換波長:	350.00 nm
ﾍﾞｰｽﾗｲﾝ設定:	ﾕｰｻﾞ 1
高分解能測定:	On
--- 近赤外 ---
ｽﾘｯﾄ:	1.00 nm
PbS感度:	1
検知器切換補正:	補正なし
検知器切換波長:	850 nm
--------------
ｾﾙ長:	10.0 mm

ﾋﾟｰｸ検出
検出方法:	Rectangular
感度:	1
しきい値:	0.0100

ﾋﾟｰｸ
ﾋﾟｰｸ No.	開始 (nm)	ﾋﾟｰｸ波長 (nm)	終了 (nm)	高さ (%T)	面積 (%T*nm)	ﾊﾞﾚｰ (nm)	ﾊﾞﾚｰ (%T)
1	900.00	898.00	886.00	-2314.756	-2419.546	886.00	910.289
2	886.00	882.50	878.00	-709.961	39.182	878.00	373.239
3	878.00	875.00	874.00	-906.443	197977.123	874.00	397566.724
4	874.00	861.00	846.50	-193.037	199917.246	846.50	14.576
5	846.50	844.50	841.50	10.988	69.409	841.50	13.760
6	841.50	835.00	831.50	10.380	121.422	831.50	11.837
7	831.50	828.00	824.00	10.585	89.723	824.00	11.374
8	824.00	820.00	816.50	10.693	88.447	816.50	11.304
9	816.50	802.00	800.00	10.056	182.032	800.00	11.037
10	800.00	788.50	773.50	10.083	280.014	773.50	10.442
11	773.50	770.50	769.00	10.011	51.305	769.00	10.595
12	769.00	762.50	747.00	10.038	234.584	747.00	10.894
13	747.00	745.50	707.00	10.525	466.283	707.00	12.195
14	707.00	675.50	668.50	11.130	450.144	668.50	11.432
15	668.50	631.50	599.50	6.920	559.714	599.50	8.618
16	599.50	510.00	507.50	0.143	234.589	507.50	0.207
17	507.50	494.50	484.00	0.113	3.895	484.00	0.191
18	484.00	471.50	470.50	0.071	1.856	470.50	0.188
19	470.50	466.00	461.00	0.075	1.431	461.00	0.211
20	461.00	459.00	440.00	0.085	3.542	440.00	0.369
21	440.00	436.50	432.00	0.139	2.423	432.00	0.420
22	432.00	429.50	401.50	0.249	75.554	401.50	7.612
23	401.50	389.00	372.00	5.306	201.454	372.00	9.288
24	372.00	352.50	349.00	6.117	178.725	349.00	8.702
25	349.00	341.50	339.00	2.584	60.336	339.00	6.158
26	339.00	334.00	331.50	-0.335	24.238	331.50	4.297
27	331.50	330.00	327.00	-0.519	12.469	327.00	5.083
28	327.00	319.50	313.00	-3.537	22.265	313.00	4.111
29	313.00	307.50	300.00	-1.273	9.598	300.00	3.308

ﾃﾞｰﾀﾘｽﾄ
nm	%T
900.00	40.179
899.00	-7.757
898.00	-2314.756
897.00	59.537
896.00	-250.981
895.00	-117.707
894.00	13.914
893.00	14.972
892.00	-1651.970
891.00	-1057.975
890.00	-81.160
889.00	46.406
888.00	-290.336
887.00	-21.112
886.00	910.289
885.00	63.644
884.00	-24.959
883.00	-149.291
882.00	-153.764
881.00	-17.181
880.00	-21.902
879.00	-4.723
878.00	373.239
877.00	-434.795
876.00	-462.090
875.00	-906.443
874.00	397566.724
873.00	92.872
872.00	696.643
871.00	26.360
870.00	39.824
869.00	-719.266
868.00	-86.866
867.00	-266.238
866.00	-458.264
865.00	514.550
864.00	-0.754
863.00	-4.262
862.00	23.286
861.00	-193.037
860.00	-175.787
859.00	63.329
858.00	-105.088
857.00	-35.814
856.00	32.502
855.00	82.116
854.00	532.975
853.00	-58.091
852.00	-724.432
851.00	2709.101
850.00	9.140
849.00	9.577
848.00	9.781
847.00	11.848
846.00	12.535
845.00	13.171
844.00	11.485
843.00	11.671
842.00	12.534
841.00	13.427
840.00	11.028
839.00	11.309
838.00	10.745
837.00	11.377
836.00	11.291
835.00	10.380
834.00	10.413
833.00	11.499
832.00	11.299
831.00	11.543
830.00	11.184
829.00	12.256
828.00	10.585
827.00	11.325
826.00	11.292
825.00	11.109
824.00	11.374
823.00	10.956
822.00	11.059
821.00	10.820
820.00	10.693
819.00	11.294
818.00	11.084
817.00	11.130
816.00	10.731
815.00	10.542
814.00	11.461
813.00	10.718
812.00	10.613
811.00	10.432
810.00	10.403
809.00	10.557
808.00	10.536
807.00	10.207
806.00	10.484
805.00	10.869
804.00	10.688
803.00	10.494
802.00	10.056
801.00	10.530
800.00	11.037
799.00	10.712
798.00	10.348
797.00	10.685
796.00	10.380
795.00	10.373
794.00	10.584
793.00	10.537
792.00	10.314
791.00	10.016
790.00	10.057
789.00	10.338
788.00	10.120
787.00	10.209
786.00	10.089
785.00	10.125
784.00	10.484
783.00	10.431
782.00	10.391
781.00	10.370
780.00	10.507
779.00	10.443
778.00	10.263
777.00	10.544
776.00	10.139
775.00	10.375
774.00	10.337
773.00	10.129
772.00	10.286
771.00	10.108
770.00	10.053
769.00	10.595
768.00	10.356
767.00	10.169
766.00	10.373
765.00	10.118
764.00	10.247
763.00	10.335
762.00	10.532
761.00	10.470
760.00	10.487
759.00	10.492
758.00	10.514
757.00	10.425
756.00	10.192
755.00	10.622
754.00	10.681
753.00	10.375
752.00	10.404
751.00	10.705
750.00	10.441
749.00	10.612
748.00	10.613
747.00	10.894
746.00	10.772
745.00	10.583
744.00	10.968
743.00	10.857
742.00	10.841
741.00	11.018
740.00	11.247
739.00	11.119
738.00	11.010
737.00	10.987
736.00	11.175
735.00	11.203
734.00	11.168
733.00	11.394
732.00	11.462
731.00	11.409
730.00	11.460
729.00	11.665
728.00	11.545
727.00	11.704
726.00	11.637
725.00	11.672
724.00	11.727
723.00	11.838
722.00	11.598
721.00	11.984
720.00	11.972
719.00	11.802
718.00	11.940
717.00	11.893
716.00	12.004
715.00	11.843
714.00	12.082
713.00	11.993
712.00	12.123
711.00	12.064
710.00	12.131
709.00	12.061
708.00	12.076
707.00	12.195
706.00	12.001
705.00	12.145
704.00	12.051
703.00	11.920
702.00	11.948
701.00	12.049
700.00	12.015
699.00	11.971
698.00	11.950
697.00	11.872
696.00	11.704
695.00	11.780
694.00	11.740
693.00	11.647
692.00	11.543
691.00	11.494
690.00	11.525
689.00	11.572
688.00	11.425
687.00	11.370
686.00	11.359
685.00	11.389
684.00	11.437
683.00	11.261
682.00	11.194
681.00	11.258
680.00	11.246
679.00	11.262
678.00	11.081
677.00	11.208
676.00	11.158
675.00	11.156
674.00	11.131
673.00	11.259
672.00	11.312
671.00	11.267
670.00	11.333
669.00	11.348
668.00	11.393
667.00	11.314
666.00	11.285
665.00	11.176
664.00	11.025
663.00	10.808
662.00	10.476
661.00	10.130
660.00	9.791
659.00	9.401
658.00	9.095
657.00	8.638
656.00	8.308
655.00	8.066
654.00	7.814
653.00	7.581
652.00	7.425
651.00	7.453
650.00	7.445
649.00	7.349
648.00	7.378
647.00	7.205
646.00	7.205
645.00	7.171
644.00	7.119
643.00	7.128
642.00	7.078
641.00	6.984
640.00	7.047
639.00	7.080
638.00	7.022
637.00	7.032
636.00	6.988
635.00	7.033
634.00	7.051
633.00	6.997
632.00	7.019
631.00	7.001
630.00	7.058
629.00	7.015
628.00	7.072
627.00	7.046
626.00	7.061
625.00	7.193
624.00	7.144
623.00	7.297
622.00	7.283
621.00	7.338
620.00	7.323
619.00	7.436
618.00	7.537
617.00	7.689
616.00	7.672
615.00	7.743
614.00	7.820
613.00	7.947
612.00	7.938
611.00	8.140
610.00	8.172
609.00	8.212
608.00	8.327
607.00	8.370
606.00	8.433
605.00	8.342
604.00	8.547
603.00	8.554
602.00	8.618
601.00	8.546
600.00	8.610
599.00	8.565
598.00	8.581
597.00	8.509
596.00	8.356
595.00	8.281
594.00	8.209
593.00	8.037
592.00	7.908
591.00	7.709
590.00	7.512
589.00	7.275
588.00	6.994
587.00	6.860
586.00	6.503
585.00	6.266
584.00	6.022
583.00	5.847
582.00	5.460
581.00	5.194
580.00	4.988
579.00	4.683
578.00	4.493
577.00	4.263
576.00	4.055
575.00	3.847
574.00	3.605
573.00	3.400
572.00	3.175
571.00	3.056
570.00	2.923
569.00	2.747
568.00	2.586
567.00	2.403
566.00	2.258
565.00	2.141
564.00	2.062
563.00	1.889
562.00	1.765
561.00	1.750
560.00	1.620
559.00	1.625
558.00	1.431
557.00	1.404
556.00	1.329
555.00	1.230
554.00	1.215
553.00	1.110
552.00	1.085
551.00	0.987
550.00	0.962
549.00	0.913
548.00	0.890
547.00	0.859
546.00	0.785
545.00	0.719
544.00	0.703
543.00	0.671
542.00	0.631
541.00	0.640
540.00	0.547
539.00	0.593
538.00	0.529
537.00	0.506
536.00	0.417
535.00	0.439
534.00	0.468
533.00	0.419
532.00	0.409
531.00	0.419
530.00	0.380
529.00	0.406
528.00	0.359
527.00	0.360
526.00	0.338
525.00	0.309
524.00	0.322
523.00	0.302
522.00	0.314
521.00	0.322
520.00	0.254
519.00	0.256
518.00	0.274
517.00	0.273
516.00	0.286
515.00	0.203
514.00	0.221
513.00	0.231
512.00	0.195
511.00	0.182
510.00	0.143
509.00	0.145
508.00	0.205
507.00	0.146
506.00	0.202
505.00	0.205
504.00	0.216
503.00	0.156
502.00	0.186
501.00	0.185
500.00	0.177
499.00	0.183
498.00	0.212
497.00	0.109
496.00	0.179
495.00	0.145
494.00	0.142
493.00	0.128
492.00	0.132
491.00	0.153
490.00	0.165
489.00	0.153
488.00	0.169
487.00	0.152
486.00	0.157
485.00	0.139
484.00	0.191
483.00	0.095
482.00	0.093
481.00	0.225
480.00	0.118
479.00	0.059
478.00	0.098
477.00	0.148
476.00	0.132
475.00	0.137
474.00	0.121
473.00	0.135
472.00	0.118
471.00	0.165
470.00	0.173
469.00	0.153
468.00	0.134
467.00	0.109
466.00	0.075
465.00	0.097
464.00	0.198
463.00	0.133
462.00	0.131
461.00	0.211
460.00	0.167
459.00	0.085
458.00	0.103
457.00	0.171
456.00	0.088
455.00	0.077
454.00	0.171
453.00	0.092
452.00	0.093
451.00	0.047
450.00	0.179
449.00	0.236
448.00	0.167
447.00	0.192
446.00	0.170
445.00	0.174
444.00	0.103
443.00	0.258
442.00	0.197
441.00	0.179
440.00	0.369
439.00	0.278
438.00	0.205
437.00	0.246
436.00	0.220
435.00	0.327
434.00	0.301
433.00	0.251
432.00	0.420
431.00	0.293
430.00	0.312
429.00	0.292
428.00	0.373
427.00	0.547
426.00	0.458
425.00	0.557
424.00	0.498
423.00	0.587
422.00	0.701
421.00	0.672
420.00	0.847
419.00	0.956
418.00	1.089
417.00	1.175
416.00	1.411
415.00	1.596
414.00	1.800
413.00	2.168
412.00	2.487
411.00	2.798
410.00	3.212
409.00	3.898
408.00	4.440
407.00	5.330
406.00	5.988
405.00	6.325
404.00	7.170
403.00	7.432
402.00	7.582
401.00	7.538
400.00	7.544
399.00	7.343
398.00	6.866
397.00	6.762
396.00	6.217
395.00	6.377
394.00	5.775
393.00	5.854
392.00	5.630
391.00	5.592
390.00	5.419
389.00	5.306
388.00	5.636
387.00	5.642
386.00	5.626
385.00	5.789
384.00	5.649
383.00	6.234
382.00	6.245
381.00	6.308
380.00	7.334
379.00	7.247
378.00	7.617
377.00	8.167
376.00	8.405
375.00	8.565
374.00	8.217
373.00	9.283
372.00	9.288
371.00	9.050
370.00	8.343
369.00	8.316
368.00	7.365
367.00	8.066
366.00	7.690
365.00	7.511
364.00	7.737
363.00	7.894
362.00	6.908
361.00	7.701
360.00	7.121
359.00	8.124
358.00	7.635
357.00	7.778
356.00	6.579
355.00	7.947
354.00	7.482
353.00	7.552
352.00	6.626
351.00	6.591
350.00	6.574
349.00	8.702
348.00	6.033
347.00	5.821
346.00	6.997
345.00	7.257
344.00	7.745
343.00	4.927
342.00	3.800
341.00	4.197
340.00	3.331
339.00	6.158
338.00	5.237
337.00	3.503
336.00	2.997
335.00	4.278
334.00	-0.335
333.00	1.407
332.00	1.736
331.00	2.220
330.00	-0.519
329.00	0.879
328.00	3.232
327.00	5.083
326.00	1.126
325.00	4.444
324.00	3.233
323.00	1.408
322.00	2.316
321.00	-1.201
320.00	-1.077
319.00	2.919
318.00	0.623
317.00	0.804
316.00	1.983
315.00	0.897
314.00	1.317
313.00	4.111
312.00	-0.066
311.00	-0.971
310.00	2.088
309.00	-1.175
308.00	4.320
307.00	-0.976
306.00	0.416
305.00	-1.032
304.00	1.590
303.00	1.417
302.00	1.213
301.00	2.004
300.00	3.308

