ｻﾝﾌﾟﾙ:	'20190322.dat
ﾌｧｲﾙ名:	20190322_DBR.UDS
分析日時:	21:29:01, 03/22/2019
ｵﾍﾟﾚｰﾀ:	Ikezawa
ｺﾒﾝﾄ:	'

光度計
ﾓﾃﾞﾙ:	U-4000形分光光度計
ｼﾘｱﾙ No.:	'
ROM Ver.:	5111 03

装置条件
測定ﾓｰﾄﾞ:	波長ｽｷｬﾝ
ﾃﾞｰﾀﾓｰﾄﾞ:	%T
開始:	900.00 nm
終了:	400.00 nm
ｽｷｬﾝｽﾋﾟｰﾄﾞ:	120(300) nm/min
ｻﾝﾌﾟﾘﾝｸﾞ間隔:	0.50 nm
ｽﾘｯﾄ:	1.00 nm
ﾎﾄﾏﾙ電圧:	自動制御
光源切換ﾓｰﾄﾞ:	自動切換
光源切換波長:	340.00 nm
ﾍﾞｰｽﾗｲﾝ設定:	ﾕｰｻﾞ 1
高分解能測定:	Off
--- 近赤外 ---
ｽﾘｯﾄ:	1.00 nm
PbS感度:	1
検知器切換補正:	補正なし
検知器切換波長:	850 nm
--------------
ｾﾙ長:	10.0 mm

ﾋﾟｰｸ検出
検出方法:	Rectangular
感度:	1
しきい値:	0.0100

ﾋﾟｰｸ
ﾋﾟｰｸ No.	開始 (nm)	ﾋﾟｰｸ波長 (nm)	終了 (nm)	高さ (%T)	面積 (%T*nm)	ﾊﾞﾚｰ (nm)	ﾊﾞﾚｰ (%T)
1	900.00	899.00	896.50	-6.008	187.123	896.50	151.813
2	896.50	893.00	890.00	-232.022	415.550	890.00	306.355
3	890.00	887.50	884.50	-985.384	1620.220	884.50	2004.702
4	884.50	880.00	876.50	-1215.304	979.580	876.50	1032.552
5	876.50	868.00	865.00	-688.615	3135.794	865.00	1392.680
6	865.00	862.50	857.50	-1536.679	-47.955	857.50	2786.788
7	857.50	855.00	852.50	-11976.819	-26591.142	852.50	3345.904
8	852.50	848.50	845.50	-38.952	2574.724	845.50	22.028
9	845.50	840.50	838.50	4.667	117.947	838.50	23.011
10	838.50	833.50	827.50	3.849	112.862	827.50	11.706
11	827.50	824.00	822.50	2.901	35.676	822.50	5.467
12	822.50	819.50	815.50	1.296	27.568	815.50	5.857
13	815.50	810.50	808.50	2.852	28.207	808.50	4.479
14	808.50	806.00	804.50	1.757	16.663	804.50	5.348
15	804.50	803.00	800.50	0.377	13.444	800.50	6.344
16	800.50	798.00	793.50	0.523	22.761	793.50	5.282
17	793.50	790.00	788.00	0.792	18.078	788.00	4.051
18	788.00	785.00	781.00	0.588	14.383	781.00	2.398
19	781.00	778.50	775.50	-0.326	4.606	775.50	2.223
20	775.50	773.00	770.50	0.110	9.019	770.50	3.647
21	770.50	766.00	762.50	0.042	14.533	762.50	2.619
22	762.50	760.50	756.00	0.728	10.395	756.00	2.119
23	756.00	753.50	751.00	1.039	8.778	751.00	1.851
24	751.00	747.50	745.00	0.774	9.004	745.00	1.731
25	745.00	743.00	741.00	1.031	5.876	741.00	1.614
26	741.00	738.00	735.50	0.028	4.908	735.50	1.545
27	735.50	731.00	723.00	-0.062	8.864	723.00	1.833
28	723.00	719.50	716.00	0.535	8.069	716.00	1.213
29	716.00	714.00	710.50	-0.130	2.934	710.50	0.944
30	710.50	707.00	703.50	0.171	5.088	703.50	1.040
31	703.50	695.50	692.50	0.181	6.986	692.50	1.562
32	692.50	689.50	684.00	0.004	5.450	684.00	0.881
33	684.00	680.00	677.00	-0.128	2.990	677.00	0.750
34	677.00	675.00	672.50	0.132	1.939	672.50	0.445
35	672.50	671.00	668.50	0.042	1.487	668.50	0.651
36	668.50	666.00	664.50	0.137	1.601	664.50	0.461
37	664.50	659.00	656.00	-0.143	1.941	656.00	0.349
38	656.00	651.50	648.00	0.033	2.430	648.00	0.645
39	648.00	643.50	630.50	0.196	33.618	630.50	5.150
40	630.50	624.50	602.50	3.707	295.655	602.50	30.086
41	602.50	592.00	579.00	21.878	649.892	579.00	33.801
42	579.00	569.50	558.00	27.559	648.195	558.00	33.300
43	558.00	544.50	533.00	23.699	707.307	533.00	30.268
44	533.00	520.00	511.50	23.995	580.336	511.50	26.590
45	511.50	499.00	491.50	22.111	487.108	491.50	23.953
46	491.50	477.00	471.50	19.933	438.378	471.50	21.149
47	471.50	459.00	456.00	17.168	294.206	456.00	18.048
48	456.00	446.50	444.50	15.325	198.364	444.50	15.988
49	444.50	442.00	440.00	14.974	77.437	440.00	15.611
50	440.00	434.00	432.00	12.581	117.042	432.00	13.021
51	432.00	428.00	426.50	11.618	73.810	426.50	12.654
52	426.50	423.50	420.00	11.365	84.878	420.00	12.396
53	420.00	414.00	410.50	9.116	107.866	410.50	11.269

ﾃﾞｰﾀﾘｽﾄ
nm	%T
900.00	6.016
899.00	-6.008
898.00	34.536
897.00	124.219
896.00	134.402
895.00	2.103
894.00	-17.422
893.00	-232.022
892.00	150.164
891.00	212.347
890.00	306.355
889.00	62.666
888.00	-39.862
887.00	-831.789
886.00	197.094
885.00	1830.734
884.00	2002.998
883.00	560.303
882.00	-689.020
881.00	-349.057
880.00	-1215.304
879.00	-845.632
878.00	174.203
877.00	1010.132
876.00	741.115
875.00	403.564
874.00	139.370
873.00	-20.510
872.00	-186.811
871.00	-315.611
870.00	-140.919
869.00	-195.140
868.00	-688.615
867.00	511.273
866.00	1262.242
865.00	1392.680
864.00	407.646
863.00	-1053.112
862.00	-1381.934
861.00	-1203.205
860.00	130.860
859.00	158.200
858.00	2730.813
857.00	-203.960
856.00	-8363.066
855.00	-11976.819
854.00	-8372.356
853.00	189.292
852.00	3293.925
851.00	199.911
850.00	147.714
849.00	-9.151
848.00	-37.308
847.00	15.353
846.00	21.356
845.00	12.838
844.00	14.997
843.00	20.568
842.00	13.138
841.00	7.834
840.00	10.883
839.00	19.703
838.00	19.539
837.00	14.979
836.00	10.101
835.00	7.971
834.00	6.065
833.00	4.297
832.00	5.347
831.00	6.840
830.00	6.730
829.00	8.354
828.00	11.498
827.00	11.139
826.00	8.135
825.00	3.996
824.00	2.901
823.00	5.012
822.00	4.442
821.00	4.590
820.00	3.043
819.00	2.000
818.00	2.696
817.00	3.151
816.00	5.177
815.00	4.079
814.00	2.457
813.00	3.613
812.00	4.163
811.00	2.896
810.00	3.160
809.00	3.657
808.00	4.161
807.00	2.740
806.00	1.757
805.00	4.625
804.00	3.435
803.00	0.377
802.00	1.307
801.00	4.641
800.00	5.537
799.00	2.548
798.00	0.523
797.00	1.472
796.00	2.652
795.00	3.185
794.00	3.977
793.00	4.475
792.00	3.716
791.00	2.213
790.00	0.792
789.00	2.334
788.00	4.051
787.00	2.966
786.00	1.828
785.00	0.588
784.00	0.990
783.00	0.834
782.00	1.743
781.00	2.398
780.00	0.774
779.00	0.067
778.00	-0.255
777.00	0.083
776.00	1.757
775.00	2.108
774.00	0.894
773.00	0.110
772.00	1.064
771.00	3.320
770.00	2.890
769.00	1.628
768.00	1.893
767.00	1.062
766.00	0.042
765.00	0.513
764.00	1.767
763.00	2.470
762.00	2.049
761.00	1.056
760.00	1.074
759.00	0.845
758.00	1.348
757.00	1.690
756.00	2.119
755.00	2.037
754.00	1.438
753.00	1.387
752.00	1.307
751.00	1.851
750.00	1.536
749.00	1.425
748.00	1.231
747.00	0.858
746.00	1.537
745.00	1.731
744.00	1.321
743.00	1.031
742.00	1.062
741.00	1.614
740.00	1.044
739.00	0.658
738.00	0.028
737.00	0.557
736.00	0.872
735.00	1.359
734.00	0.996
733.00	0.279
732.00	-0.046
731.00	-0.062
730.00	0.601
729.00	-0.009
728.00	0.288
727.00	0.571
726.00	0.733
725.00	0.877
724.00	1.517
723.00	1.833
722.00	1.278
721.00	0.821
720.00	0.687
719.00	0.865
718.00	1.098
717.00	1.178
716.00	1.213
715.00	0.382
714.00	-0.130
713.00	0.207
712.00	0.529
711.00	0.843
710.00	0.804
709.00	0.771
708.00	0.400
707.00	0.171
706.00	0.505
705.00	1.023
704.00	0.823
703.00	0.912
702.00	0.413
701.00	0.366
700.00	0.391
699.00	0.409
698.00	0.578
697.00	0.368
696.00	0.378
695.00	0.299
694.00	0.858
693.00	1.454
692.00	1.556
691.00	0.585
690.00	0.140
689.00	0.051
688.00	0.241
687.00	0.501
686.00	0.716
685.00	0.775
684.00	0.881
683.00	0.734
682.00	0.439
681.00	0.180
680.00	-0.128
679.00	0.227
678.00	0.306
677.00	0.750
676.00	0.366
675.00	0.132
674.00	0.323
673.00	0.429
672.00	0.412
671.00	0.042
670.00	0.276
669.00	0.515
668.00	0.581
667.00	0.220
666.00	0.137
665.00	0.395
664.00	0.403
663.00	0.334
662.00	0.300
661.00	0.293
660.00	0.102
659.00	-0.143
658.00	0.023
657.00	0.222
656.00	0.349
655.00	0.318
654.00	0.132
653.00	0.186
652.00	0.088
651.00	0.150
650.00	0.347
649.00	0.543
648.00	0.645
647.00	0.326
646.00	0.431
645.00	0.405
644.00	0.352
643.00	0.260
642.00	0.435
641.00	0.731
640.00	0.939
639.00	1.164
638.00	1.409
637.00	1.856
636.00	2.264
635.00	3.131
634.00	3.849
633.00	4.625
632.00	4.816
631.00	4.978
630.00	5.075
629.00	5.115
628.00	4.930
627.00	4.532
626.00	4.134
625.00	3.738
624.00	3.883
623.00	3.872
622.00	3.816
621.00	3.901
620.00	3.973
619.00	4.121
618.00	4.240
617.00	4.698
616.00	5.330
615.00	6.173
614.00	7.006
613.00	7.802
612.00	9.140
611.00	10.915
610.00	13.254
609.00	15.892
608.00	18.761
607.00	21.993
606.00	24.752
605.00	27.283
604.00	29.007
603.00	29.935
602.00	29.970
601.00	29.301
600.00	28.292
599.00	26.921
598.00	25.693
597.00	24.490
596.00	23.433
595.00	22.529
594.00	22.067
593.00	21.965
592.00	21.878
591.00	22.343
590.00	22.948
589.00	23.832
588.00	24.959
587.00	26.399
586.00	27.869
585.00	29.104
584.00	30.551
583.00	32.076
582.00	33.109
581.00	33.469
580.00	33.670
579.00	33.801
578.00	33.470
577.00	32.355
576.00	31.324
575.00	30.572
574.00	30.090
573.00	29.263
572.00	28.453
571.00	27.724
570.00	27.580
569.00	27.636
568.00	27.580
567.00	27.794
566.00	28.090
565.00	28.683
564.00	29.328
563.00	30.137
562.00	31.045
561.00	31.501
560.00	32.240
559.00	32.947
558.00	33.300
557.00	33.101
556.00	32.514
555.00	32.094
554.00	31.378
553.00	30.400
552.00	29.177
551.00	27.927
550.00	26.883
549.00	26.137
548.00	25.776
547.00	25.119
546.00	24.433
545.00	23.904
544.00	23.825
543.00	24.172
542.00	24.599
541.00	25.071
540.00	25.409
539.00	26.134
538.00	26.970
537.00	27.601
536.00	28.243
535.00	29.091
534.00	29.810
533.00	30.268
532.00	30.207
531.00	29.678
530.00	28.940
529.00	28.500
528.00	28.090
527.00	27.215
526.00	26.360
525.00	25.814
524.00	25.357
523.00	24.691
522.00	24.281
521.00	24.073
520.00	23.995
519.00	24.076
518.00	24.530
517.00	25.198
516.00	25.469
515.00	25.718
514.00	26.015
513.00	26.367
512.00	26.492
511.00	26.525
510.00	26.494
509.00	25.856
508.00	25.424
507.00	25.151
506.00	24.863
505.00	24.320
504.00	23.422
503.00	23.019
502.00	22.496
501.00	22.288
500.00	22.133
499.00	22.111
498.00	22.291
497.00	22.237
496.00	22.476
495.00	22.555
494.00	23.225
493.00	23.780
492.00	23.935
491.00	23.892
490.00	23.493
489.00	23.238
488.00	23.016
487.00	22.534
486.00	22.040
485.00	21.285
484.00	21.072
483.00	21.212
482.00	20.712
481.00	20.286
480.00	20.091
479.00	20.255
478.00	20.144
477.00	19.933
476.00	20.262
475.00	20.735
474.00	20.723
473.00	20.953
472.00	20.958
471.00	20.856
470.00	20.256
469.00	19.590
468.00	19.624
467.00	19.238
466.00	18.439
465.00	17.794
464.00	17.529
463.00	17.549
462.00	17.355
461.00	17.265
460.00	17.416
459.00	17.168
458.00	17.425
457.00	17.876
456.00	18.048
455.00	17.932
454.00	17.803
453.00	17.585
452.00	17.046
451.00	16.320
450.00	15.975
449.00	15.913
448.00	15.531
447.00	15.329
446.00	15.455
445.00	15.794
444.00	15.829
443.00	15.273
442.00	14.974
441.00	15.258
440.00	15.611
439.00	15.173
438.00	14.282
437.00	13.935
436.00	13.593
435.00	13.011
434.00	12.581
433.00	12.623
432.00	13.021
431.00	12.827
430.00	12.302
429.00	11.764
428.00	11.618
427.00	12.368
426.00	12.514
425.00	12.584
424.00	12.075
423.00	11.481
422.00	11.910
421.00	11.961
420.00	12.396
419.00	11.588
418.00	10.947
417.00	11.193
416.00	11.289
415.00	10.392
414.00	9.116
413.00	9.629
412.00	10.487
411.00	11.223
410.00	11.028
409.00	9.454
408.00	8.947
407.00	7.989
406.00	8.555
405.00	8.388
404.00	6.291
403.00	5.744
402.00	5.339
401.00	6.800
400.00	7.047

