ｻﾝﾌﾟﾙ:	'20190322.dat
ﾌｧｲﾙ名:	20190322019.UDS
分析日時:	05:47:34, 07/27/2019
ｵﾍﾟﾚｰﾀ:	Ikezawa
ｺﾒﾝﾄ:	'

光度計
ﾓﾃﾞﾙ:	U-4000形分光光度計
ｼﾘｱﾙ No.:	'
ROM Ver.:	5111 03

装置条件
測定ﾓｰﾄﾞ:	波長ｽｷｬﾝ
ﾃﾞｰﾀﾓｰﾄﾞ:	%T
開始:	900.00 nm
終了:	300.00 nm
ｽｷｬﾝｽﾋﾟｰﾄﾞ:	120(300) nm/min
ｻﾝﾌﾟﾘﾝｸﾞ間隔:	0.50 nm
ｽﾘｯﾄ:	3.00 nm
ﾎﾄﾏﾙ電圧:	自動制御
光源切換ﾓｰﾄﾞ:	自動切換
光源切換波長:	350.00 nm
ﾍﾞｰｽﾗｲﾝ設定:	ﾕｰｻﾞ 1
高分解能測定:	On
--- 近赤外 ---
ｽﾘｯﾄ:	1.00 nm
PbS感度:	1
検知器切換補正:	補正なし
検知器切換波長:	850 nm
--------------
ｾﾙ長:	10.0 mm

ﾋﾟｰｸ検出
検出方法:	Rectangular
感度:	1
しきい値:	0.0100

ﾋﾟｰｸ
ﾋﾟｰｸ No.	開始 (nm)	ﾋﾟｰｸ波長 (nm)	終了 (nm)	高さ (%T)	面積 (%T*nm)	ﾊﾞﾚｰ (nm)	ﾊﾞﾚｰ (%T)
1	900.00	893.50	877.00	-64830.603	-27248.263	877.00	2239.824
2	877.00	874.50	866.50	-165.628	5065.193	866.50	3377.552
3	866.50	865.50	863.50	-761.135	4468.548	863.50	6285.662
4	863.50	859.50	855.00	-2031.098	2629.381	855.00	1037.213
5	855.00	852.00	841.50	-748.602	986.365	841.50	95.277
6	841.50	838.00	834.00	91.925	745.733	834.00	94.450
7	834.00	821.00	819.00	91.774	1441.693	819.00	93.378
8	819.00	817.50	813.50	92.378	557.659	813.50	93.437
9	813.50	811.00	808.00	92.339	557.406	808.00	93.901
10	808.00	807.00	796.50	92.175	1115.916	796.50	93.465
11	796.50	783.50	776.00	92.436	1953.388	776.00	93.799
12	776.00	769.50	768.00	92.719	792.539	768.00	94.005
13	768.00	759.00	758.00	92.995	979.893	758.00	93.758
14	758.00	749.00	746.00	92.696	1167.723	746.00	93.836
15	746.00	734.00	731.50	93.068	1403.111	731.50	93.800
16	731.50	725.50	719.00	93.174	1216.943	719.00	93.976
17	719.00	715.50	713.00	93.149	608.173	713.00	93.796
18	713.00	708.00	705.00	93.287	794.766	705.00	93.652
19	705.00	700.00	696.50	93.179	840.972	696.50	93.516
20	696.50	692.00	689.00	93.133	746.995	689.00	93.566
21	689.00	689.50	686.00	92.948	327.005	686.00	93.662
22	686.00	677.50	676.50	92.892	932.849	676.50	93.421
23	676.50	669.00	664.50	92.803	1163.228	664.50	93.044
24	664.50	654.50	646.50	92.623	1717.686	646.50	92.956
25	646.50	645.50	641.50	92.423	509.837	641.50	92.993
26	641.50	637.50	636.50	92.621	510.291	636.50	93.012
27	636.50	633.50	626.00	92.380	1019.915	626.00	92.938
28	626.00	623.00	603.50	92.506	2133.188	603.50	93.020
29	603.50	601.50	597.00	92.584	650.152	597.00	93.140
30	597.00	593.50	591.50	92.976	558.315	591.50	93.285
31	591.50	587.00	575.00	93.026	1584.969	575.00	93.566
32	575.00	572.50	570.00	93.033	513.435	570.00	93.529
33	570.00	553.00	550.50	92.932	1867.356	550.50	93.514
34	550.50	543.00	542.00	93.003	839.047	542.00	93.304
35	542.00	537.50	535.00	92.778	697.935	535.00	93.209
36	535.00	525.00	521.50	92.689	1299.652	521.50	92.934
37	521.50	517.50	506.00	92.318	1480.862	506.00	92.689
38	506.00	502.00	488.00	92.333	1712.904	488.00	92.880
39	488.00	486.50	479.00	92.488	881.945	479.00	93.192
40	479.00	474.50	465.00	92.704	1348.982	465.00	93.344
41	465.00	457.00	455.00	92.716	977.396	455.00	93.119
42	455.00	449.00	445.50	92.435	927.479	445.50	92.791
43	445.50	436.00	435.00	91.853	1015.860	435.00	92.461
44	435.00	426.00	420.00	91.479	1425.206	420.00	92.120
45	420.00	418.00	412.00	91.667	782.009	412.00	92.398
46	412.00	408.50	404.50	91.748	737.086	404.50	92.382
47	404.50	402.00	396.50	91.723	783.875	396.50	92.490
48	396.50	379.50	377.50	90.248	1788.520	377.50	91.872
49	377.50	370.50	368.50	90.151	859.989	368.50	90.789
50	368.50	365.50	362.50	88.233	584.416	362.50	89.991
51	362.50	348.50	346.00	85.035	1515.225	346.00	91.091
52	346.00	342.50	340.00	84.785	570.116	340.00	89.107

ﾃﾞｰﾀﾘｽﾄ
nm	%T
900.00	214.397
899.00	-143.152
898.00	-245.616
897.00	13.001
896.00	-10.022
895.00	-44.096
894.00	-56.930
893.00	373.933
892.00	351.662
891.00	-351.985
890.00	14.889
889.00	-61.187
888.00	60.904
887.00	23.535
886.00	-1.616
885.00	-536.097
884.00	75.456
883.00	0.257
882.00	9046.872
881.00	55.885
880.00	294.933
879.00	-1699.027
878.00	187.474
877.00	2239.824
876.00	-68.545
875.00	5439.838
874.00	-17.150
873.00	-51.452
872.00	-560.468
871.00	-387.065
870.00	56.335
869.00	-892.721
868.00	79.549
867.00	-44.968
866.00	148.300
865.00	-29.326
864.00	-13.534
863.00	-71.752
862.00	1008.136
861.00	-664.958
860.00	30.455
859.00	11.991
858.00	48.650
857.00	9.192
856.00	162.560
855.00	1037.213
854.00	-21.462
853.00	-317.784
852.00	-748.602
851.00	-91.900
850.00	3.458
849.00	94.349
848.00	93.308
847.00	96.969
846.00	92.183
845.00	90.801
844.00	91.528
843.00	90.723
842.00	92.071
841.00	92.184
840.00	94.145
839.00	91.548
838.00	91.925
837.00	92.454
836.00	94.003
835.00	94.314
834.00	94.450
833.00	92.738
832.00	93.757
831.00	93.184
830.00	92.337
829.00	93.328
828.00	91.811
827.00	94.041
826.00	92.626
825.00	93.731
824.00	92.957
823.00	92.752
822.00	92.945
821.00	91.774
820.00	93.139
819.00	93.378
818.00	93.370
817.00	93.171
816.00	93.198
815.00	93.445
814.00	92.023
813.00	93.263
812.00	92.459
811.00	92.339
810.00	92.542
809.00	92.914
808.00	93.901
807.00	92.175
806.00	92.681
805.00	92.981
804.00	92.773
803.00	93.506
802.00	93.742
801.00	93.682
800.00	93.400
799.00	92.461
798.00	93.203
797.00	92.433
796.00	93.356
795.00	93.025
794.00	92.772
793.00	92.893
792.00	92.843
791.00	93.252
790.00	93.245
789.00	93.031
788.00	92.746
787.00	92.670
786.00	92.866
785.00	93.469
784.00	92.803
783.00	92.683
782.00	93.229
781.00	93.051
780.00	93.305
779.00	93.112
778.00	93.325
777.00	93.767
776.00	93.799
775.00	92.273
774.00	93.679
773.00	93.695
772.00	93.374
771.00	92.915
770.00	93.171
769.00	93.284
768.00	94.005
767.00	93.829
766.00	93.249
765.00	92.887
764.00	93.380
763.00	93.171
762.00	93.379
761.00	93.716
760.00	93.114
759.00	92.995
758.00	93.758
757.00	93.747
756.00	93.177
755.00	93.532
754.00	93.388
753.00	92.997
752.00	93.782
751.00	92.995
750.00	93.757
749.00	92.696
748.00	93.133
747.00	93.611
746.00	93.836
745.00	93.639
744.00	93.168
743.00	93.381
742.00	93.422
741.00	93.418
740.00	93.942
739.00	93.724
738.00	93.625
737.00	93.417
736.00	93.321
735.00	93.606
734.00	93.068
733.00	93.528
732.00	93.622
731.00	93.053
730.00	93.529
729.00	93.706
728.00	93.442
727.00	93.483
726.00	93.566
725.00	93.434
724.00	93.670
723.00	93.850
722.00	93.910
721.00	93.740
720.00	93.390
719.00	93.976
718.00	93.690
717.00	93.552
716.00	93.511
715.00	93.374
714.00	93.590
713.00	93.796
712.00	93.622
711.00	93.474
710.00	93.476
709.00	93.313
708.00	93.287
707.00	93.507
706.00	93.375
705.00	93.652
704.00	93.489
703.00	93.123
702.00	93.717
701.00	93.248
700.00	93.179
699.00	93.434
698.00	93.461
697.00	93.289
696.00	93.470
695.00	93.194
694.00	93.301
693.00	93.326
692.00	93.133
691.00	93.520
690.00	93.416
689.00	93.566
688.00	93.350
687.00	93.483
686.00	93.662
685.00	93.420
684.00	93.245
683.00	93.343
682.00	93.404
681.00	93.400
680.00	93.334
679.00	93.049
678.00	93.038
677.00	93.203
676.00	93.238
675.00	93.057
674.00	93.147
673.00	93.155
672.00	93.040
671.00	92.972
670.00	92.957
669.00	92.803
668.00	92.907
667.00	93.012
666.00	93.024
665.00	92.898
664.00	93.041
663.00	93.004
662.00	92.866
661.00	92.937
660.00	92.982
659.00	92.693
658.00	92.938
657.00	92.686
656.00	92.653
655.00	92.737
654.00	92.771
653.00	92.829
652.00	92.749
651.00	92.711
650.00	92.940
649.00	92.808
648.00	92.716
647.00	92.781
646.00	92.768
645.00	92.584
644.00	92.543
643.00	92.590
642.00	92.775
641.00	92.804
640.00	92.689
639.00	92.786
638.00	92.765
637.00	92.891
636.00	92.821
635.00	92.764
634.00	92.484
633.00	92.573
632.00	92.606
631.00	92.804
630.00	92.636
629.00	92.863
628.00	92.715
627.00	92.765
626.00	92.938
625.00	92.802
624.00	92.764
623.00	92.506
622.00	92.703
621.00	92.522
620.00	92.830
619.00	92.815
618.00	92.788
617.00	92.782
616.00	92.856
615.00	92.579
614.00	92.682
613.00	92.884
612.00	92.511
611.00	92.574
610.00	92.565
609.00	92.724
608.00	92.879
607.00	92.775
606.00	92.670
605.00	92.960
604.00	92.943
603.00	92.888
602.00	92.813
601.00	92.851
600.00	92.873
599.00	92.834
598.00	93.017
597.00	93.140
596.00	93.014
595.00	93.072
594.00	92.982
593.00	92.999
592.00	93.000
591.00	93.260
590.00	92.991
589.00	93.130
588.00	93.118
587.00	93.026
586.00	93.030
585.00	93.271
584.00	93.331
583.00	93.466
582.00	93.413
581.00	93.124
580.00	93.100
579.00	93.102
578.00	93.134
577.00	93.294
576.00	93.539
575.00	93.566
574.00	93.465
573.00	93.370
572.00	93.285
571.00	93.203
570.00	93.529
569.00	93.379
568.00	93.445
567.00	93.352
566.00	93.580
565.00	93.511
564.00	93.474
563.00	93.324
562.00	93.387
561.00	93.336
560.00	93.314
559.00	93.347
558.00	93.360
557.00	93.463
556.00	93.450
555.00	93.184
554.00	93.380
553.00	92.932
552.00	93.181
551.00	93.372
550.00	93.224
549.00	93.435
548.00	93.116
547.00	93.223
546.00	93.196
545.00	93.139
544.00	93.185
543.00	93.003
542.00	93.304
541.00	93.247
540.00	92.887
539.00	93.130
538.00	93.120
537.00	92.859
536.00	92.843
535.00	93.209
534.00	92.961
533.00	92.817
532.00	92.947
531.00	92.794
530.00	92.940
529.00	92.904
528.00	92.791
527.00	92.791
526.00	92.901
525.00	92.689
524.00	92.696
523.00	92.916
522.00	92.730
521.00	92.331
520.00	92.754
519.00	92.638
518.00	92.509
517.00	92.608
516.00	92.712
515.00	92.526
514.00	92.332
513.00	92.420
512.00	92.623
511.00	92.539
510.00	92.663
509.00	92.569
508.00	92.431
507.00	92.501
506.00	92.689
505.00	92.408
504.00	92.394
503.00	92.492
502.00	92.333
501.00	92.632
500.00	92.528
499.00	92.545
498.00	92.706
497.00	92.543
496.00	92.597
495.00	92.614
494.00	92.707
493.00	92.732
492.00	92.584
491.00	92.740
490.00	92.781
489.00	92.723
488.00	92.880
487.00	92.515
486.00	92.677
485.00	92.756
484.00	92.767
483.00	92.779
482.00	92.864
481.00	92.895
480.00	92.968
479.00	93.192
478.00	92.923
477.00	92.889
476.00	92.981
475.00	93.110
474.00	93.129
473.00	93.030
472.00	93.191
471.00	93.001
470.00	92.921
469.00	92.977
468.00	92.882
467.00	93.153
466.00	92.994
465.00	93.344
464.00	93.326
463.00	93.013
462.00	93.078
461.00	93.114
460.00	93.262
459.00	92.896
458.00	93.040
457.00	92.716
456.00	92.780
455.00	93.119
454.00	92.973
453.00	92.796
452.00	92.881
451.00	92.669
450.00	92.512
449.00	92.435
448.00	92.556
447.00	92.809
446.00	92.662
445.00	92.585
444.00	92.306
443.00	92.477
442.00	92.229
441.00	92.391
440.00	92.566
439.00	92.372
438.00	92.109
437.00	91.941
436.00	91.853
435.00	92.461
434.00	91.948
433.00	92.146
432.00	91.898
431.00	92.023
430.00	91.869
429.00	91.793
428.00	91.755
427.00	92.105
426.00	91.479
425.00	91.736
424.00	91.832
423.00	91.865
422.00	91.802
421.00	91.842
420.00	92.120
419.00	91.938
418.00	91.667
417.00	92.074
416.00	91.790
415.00	91.982
414.00	91.871
413.00	91.996
412.00	92.398
411.00	91.675
410.00	92.168
409.00	92.139
408.00	92.259
407.00	92.045
406.00	92.276
405.00	91.981
404.00	92.081
403.00	91.909
402.00	91.723
401.00	92.008
400.00	92.356
399.00	93.083
398.00	92.163
397.00	92.464
396.00	92.473
395.00	92.241
394.00	92.288
393.00	92.133
392.00	92.084
391.00	91.978
390.00	92.176
389.00	91.787
388.00	91.725
387.00	91.740
386.00	91.394
385.00	92.483
384.00	92.000
383.00	91.465
382.00	91.462
381.00	90.707
380.00	90.907
379.00	91.145
378.00	90.851
377.00	91.516
376.00	89.937
375.00	90.349
374.00	90.795
373.00	90.873
372.00	90.193
371.00	90.219
370.00	90.823
369.00	90.264
368.00	90.345
367.00	90.781
366.00	90.422
365.00	89.710
364.00	89.808
363.00	89.431
362.00	89.725
361.00	89.695
360.00	90.144
359.00	89.613
358.00	89.333
357.00	89.107
356.00	89.512
355.00	90.183
354.00	89.478
353.00	89.043
352.00	88.322
351.00	88.500
350.00	88.527
349.00	87.339
348.00	87.800
347.00	88.990
346.00	91.091
345.00	85.731
344.00	88.865
343.00	87.939
342.00	87.520
341.00	84.398
340.00	89.107
339.00	87.952
338.00	86.742
337.00	84.802
336.00	87.374
335.00	83.750
334.00	84.800
333.00	83.594
332.00	79.915
331.00	81.045
330.00	82.849
329.00	87.014
328.00	82.267
327.00	79.332
326.00	78.766
325.00	81.147
324.00	78.025
323.00	74.489
322.00	73.913
321.00	76.174
320.00	73.762
319.00	74.250
318.00	69.764
317.00	73.283
316.00	68.171
315.00	71.657
314.00	69.131
313.00	66.692
312.00	65.294
311.00	63.401
310.00	61.587
309.00	60.122
308.00	58.734
307.00	55.363
306.00	52.836
305.00	52.619
304.00	50.324
303.00	48.497
302.00	42.731
301.00	40.930
300.00	43.128

