ｻﾝﾌﾟﾙ:	'20190322.dat
ﾌｧｲﾙ名:	20190322018.UDS
分析日時:	05:33:45, 07/27/2019
ｵﾍﾟﾚｰﾀ:	Ikezawa
ｺﾒﾝﾄ:	'

光度計
ﾓﾃﾞﾙ:	U-4000形分光光度計
ｼﾘｱﾙ No.:	'
ROM Ver.:	5111 03

装置条件
測定ﾓｰﾄﾞ:	波長ｽｷｬﾝ
ﾃﾞｰﾀﾓｰﾄﾞ:	%T
開始:	900.00 nm
終了:	300.00 nm
ｽｷｬﾝｽﾋﾟｰﾄﾞ:	120(300) nm/min
ｻﾝﾌﾟﾘﾝｸﾞ間隔:	0.50 nm
ｽﾘｯﾄ:	3.00 nm
ﾎﾄﾏﾙ電圧:	自動制御
光源切換ﾓｰﾄﾞ:	自動切換
光源切換波長:	350.00 nm
ﾍﾞｰｽﾗｲﾝ設定:	ﾕｰｻﾞ 1
高分解能測定:	On
--- 近赤外 ---
ｽﾘｯﾄ:	1.00 nm
PbS感度:	1
検知器切換補正:	補正なし
検知器切換波長:	850 nm
--------------
ｾﾙ長:	10.0 mm

ﾋﾟｰｸ検出
検出方法:	Rectangular
感度:	1
しきい値:	0.0100

ﾋﾟｰｸ
ﾋﾟｰｸ No.	開始 (nm)	ﾋﾟｰｸ波長 (nm)	終了 (nm)	高さ (%T)	面積 (%T*nm)	ﾊﾞﾚｰ (nm)	ﾊﾞﾚｰ (%T)
1	900.00	896.00	894.00	-1064.890	301.655	894.00	1998.625
2	894.00	890.00	888.00	-283.689	1079.358	888.00	442.517
3	888.00	885.00	877.50	-2442.924	5225.778	877.50	3131.886
4	877.50	873.00	868.50	-1502.653	1995.619	868.50	1002.628
5	868.50	866.50	865.00	-49.778	918.800	865.00	250.287
6	865.00	860.00	854.50	-398.382	1226.994	854.50	4431.944
7	854.50	850.00	846.00	-2.501	5417.618	846.00	104.402
8	846.00	842.50	834.50	98.720	1210.652	834.50	103.043
9	834.50	832.00	824.50	99.519	1061.916	824.50	101.850
10	824.50	821.00	813.50	100.017	1159.878	813.50	101.465
11	813.50	807.00	789.50	99.522	2464.878	789.50	101.102
12	789.50	787.50	783.50	100.267	654.878	783.50	101.544
13	783.50	780.50	777.50	100.335	656.698	777.50	101.886
14	777.50	771.00	765.50	100.719	1263.782	765.50	101.495
15	765.50	762.00	750.00	100.647	1618.223	750.00	101.855
16	750.00	742.00	739.50	100.724	1114.230	739.50	101.776
17	739.50	736.00	730.50	100.827	962.804	730.50	101.791
18	730.50	729.50	726.00	101.276	507.539	726.00	101.775
19	726.00	718.50	714.50	101.030	1216.902	714.50	102.097
20	714.50	704.00	701.00	101.289	1420.769	701.00	101.824
21	701.00	699.00	696.00	101.176	557.869	696.00	101.803
22	696.00	692.50	691.50	100.910	506.939	691.50	101.641
23	691.50	682.50	679.50	101.093	1265.795	679.50	101.535
24	679.50	658.00	650.50	100.491	2976.809	650.50	100.968
25	650.50	636.50	631.00	100.148	2009.450	631.00	100.496
26	631.00	616.00	606.50	100.002	2508.419	606.50	100.785
27	606.50	604.00	601.00	100.278	602.852	601.00	100.594
28	601.00	599.50	589.50	100.317	1206.849	589.50	100.865
29	589.50	585.00	577.50	100.527	1259.146	577.50	100.962
30	577.50	575.50	564.50	100.690	1362.542	564.50	101.270
31	564.50	561.50	552.50	100.744	1262.584	552.50	101.228
32	552.50	540.50	539.00	100.773	1413.136	539.00	100.965
33	539.00	531.50	528.00	100.434	1158.005	528.00	100.786
34	528.00	516.00	514.50	99.929	1404.788	514.50	100.313
35	514.50	511.50	509.50	99.918	550.886	509.50	100.406
36	509.50	508.00	505.50	99.805	450.378	505.50	100.278
37	505.50	500.50	494.50	99.728	1149.517	494.50	100.191
38	494.50	493.00	484.50	99.781	1050.298	484.50	100.342
39	484.50	480.50	467.00	99.881	1804.431	467.00	100.815
40	467.00	462.50	460.00	100.228	753.708	460.00	100.869
41	460.00	458.50	455.00	100.205	552.660	455.00	100.562
42	455.00	453.50	450.50	100.215	502.073	450.50	100.693
43	450.50	443.00	439.00	99.727	1201.739	439.00	100.065
44	439.00	414.00	413.00	98.445	2630.002	413.00	99.270
45	413.00	408.50	401.00	98.623	1238.226	401.00	99.790
46	401.00	394.50	391.00	98.831	1040.455	391.00	99.413
47	391.00	384.00	378.50	98.310	1285.652	378.50	99.618
48	378.50	358.50	356.00	95.707	2237.768	356.00	97.636
49	356.00	336.00	333.50	94.027	2206.057	333.50	99.920
50	333.50	317.50	316.50	87.492	1637.099	316.50	94.875
51	316.50	311.00	300.00	84.443	1506.003	300.00	88.852

ﾃﾞｰﾀﾘｽﾄ
nm	%T
900.00	129.180
899.00	90.376
898.00	-484.726
897.00	60.234
896.00	-1064.890
895.00	26.736
894.00	1998.625
893.00	-1.610
892.00	-187.574
891.00	-134.400
890.00	-283.689
889.00	-2.068
888.00	442.517
887.00	308.110
886.00	-262.886
885.00	-2442.924
884.00	-73.518
883.00	9.775
882.00	114.680
881.00	8585.853
880.00	585.293
879.00	124.407
878.00	-88.977
877.00	65.068
876.00	-71.681
875.00	440.330
874.00	185.545
873.00	-1502.653
872.00	16.680
871.00	-45.715
870.00	-21.681
869.00	569.609
868.00	49.152
867.00	510.248
866.00	26.633
865.00	250.287
864.00	-475.793
863.00	174.338
862.00	-29.703
861.00	46.505
860.00	-398.382
859.00	393.961
858.00	-1836.746
857.00	-64.748
856.00	3.489
855.00	47.940
854.00	72.606
853.00	2816.034
852.00	-0.455
851.00	-0.049
850.00	-2.501
849.00	105.495
848.00	101.079
847.00	100.297
846.00	104.402
845.00	98.991
844.00	99.228
843.00	102.562
842.00	99.774
841.00	99.570
840.00	101.119
839.00	101.474
838.00	102.364
837.00	101.092
836.00	101.425
835.00	100.197
834.00	99.812
833.00	101.685
832.00	99.519
831.00	100.866
830.00	100.590
829.00	102.603
828.00	101.594
827.00	101.106
826.00	101.587
825.00	100.529
824.00	101.122
823.00	100.141
822.00	101.039
821.00	100.017
820.00	100.394
819.00	100.510
818.00	100.543
817.00	100.210
816.00	101.463
815.00	100.548
814.00	101.285
813.00	100.689
812.00	100.508
811.00	100.691
810.00	99.901
809.00	100.032
808.00	99.801
807.00	99.522
806.00	100.555
805.00	100.902
804.00	101.463
803.00	99.532
802.00	100.262
801.00	100.471
800.00	100.096
799.00	100.870
798.00	100.947
797.00	100.528
796.00	101.258
795.00	100.043
794.00	100.559
793.00	100.480
792.00	100.509
791.00	100.445
790.00	100.735
789.00	100.599
788.00	100.472
787.00	100.860
786.00	100.506
785.00	101.322
784.00	100.543
783.00	101.096
782.00	101.077
781.00	100.854
780.00	101.058
779.00	101.145
778.00	101.162
777.00	101.240
776.00	100.998
775.00	100.874
774.00	101.373
773.00	101.296
772.00	100.787
771.00	100.719
770.00	101.026
769.00	101.186
768.00	101.198
767.00	101.167
766.00	101.432
765.00	100.933
764.00	100.965
763.00	100.791
762.00	100.647
761.00	101.147
760.00	101.133
759.00	100.707
758.00	101.771
757.00	101.640
756.00	101.166
755.00	100.894
754.00	101.367
753.00	100.834
752.00	101.224
751.00	101.388
750.00	101.855
749.00	101.545
748.00	101.310
747.00	101.542
746.00	101.639
745.00	101.307
744.00	101.081
743.00	100.870
742.00	100.724
741.00	101.378
740.00	101.423
739.00	100.932
738.00	101.575
737.00	101.081
736.00	100.827
735.00	101.137
734.00	101.407
733.00	101.618
732.00	101.267
731.00	101.367
730.00	101.530
729.00	101.567
728.00	101.284
727.00	101.557
726.00	101.775
725.00	101.231
724.00	101.186
723.00	101.758
722.00	101.168
721.00	101.317
720.00	101.269
719.00	101.057
718.00	101.669
717.00	101.449
716.00	101.136
715.00	101.210
714.00	101.315
713.00	101.626
712.00	101.722
711.00	101.711
710.00	101.549
709.00	101.376
708.00	101.531
707.00	101.451
706.00	101.593
705.00	101.497
704.00	101.289
703.00	101.397
702.00	101.327
701.00	101.824
700.00	101.269
699.00	101.176
698.00	101.394
697.00	101.342
696.00	101.803
695.00	101.599
694.00	101.296
693.00	101.325
692.00	101.348
691.00	101.398
690.00	101.479
689.00	101.278
688.00	101.001
687.00	101.258
686.00	101.342
685.00	101.362
684.00	101.131
683.00	101.188
682.00	101.217
681.00	101.354
680.00	101.265
679.00	101.417
678.00	101.131
677.00	101.241
676.00	100.938
675.00	101.225
674.00	101.107
673.00	101.005
672.00	101.245
671.00	100.925
670.00	101.034
669.00	101.170
668.00	100.773
667.00	101.019
666.00	101.046
665.00	100.925
664.00	100.535
663.00	101.028
662.00	100.777
661.00	100.953
660.00	100.864
659.00	100.671
658.00	100.491
657.00	100.902
656.00	100.737
655.00	100.941
654.00	100.558
653.00	100.818
652.00	100.889
651.00	100.820
650.00	100.668
649.00	100.748
648.00	100.371
647.00	100.573
646.00	100.573
645.00	100.800
644.00	100.492
643.00	100.709
642.00	100.492
641.00	100.281
640.00	100.328
639.00	100.415
638.00	100.721
637.00	100.289
636.00	100.170
635.00	100.319
634.00	100.364
633.00	100.342
632.00	100.437
631.00	100.496
630.00	100.485
629.00	100.419
628.00	100.303
627.00	100.367
626.00	100.417
625.00	100.094
624.00	100.334
623.00	100.398
622.00	100.463
621.00	100.307
620.00	100.307
619.00	100.513
618.00	100.132
617.00	100.160
616.00	100.002
615.00	100.229
614.00	100.345
613.00	100.373
612.00	100.275
611.00	100.360
610.00	99.989
609.00	100.446
608.00	100.434
607.00	100.667
606.00	100.401
605.00	100.509
604.00	100.278
603.00	100.626
602.00	100.414
601.00	100.594
600.00	100.410
599.00	100.446
598.00	100.431
597.00	100.492
596.00	100.425
595.00	100.747
594.00	100.605
593.00	100.460
592.00	100.760
591.00	100.761
590.00	100.566
589.00	100.749
588.00	100.624
587.00	100.805
586.00	100.749
585.00	100.527
584.00	100.663
583.00	100.831
582.00	100.748
581.00	100.715
580.00	100.843
579.00	100.739
578.00	100.865
577.00	100.835
576.00	100.781
575.00	100.795
574.00	100.974
573.00	100.854
572.00	101.158
571.00	101.088
570.00	100.952
569.00	100.948
568.00	100.959
567.00	100.827
566.00	100.931
565.00	100.831
564.00	100.955
563.00	100.924
562.00	100.851
561.00	100.959
560.00	100.844
559.00	101.109
558.00	100.855
557.00	101.012
556.00	100.964
555.00	101.148
554.00	100.954
553.00	101.016
552.00	101.009
551.00	100.901
550.00	100.971
549.00	100.929
548.00	101.076
547.00	101.183
546.00	100.859
545.00	100.948
544.00	100.984
543.00	100.794
542.00	100.842
541.00	100.791
540.00	100.922
539.00	100.965
538.00	100.841
537.00	100.850
536.00	101.012
535.00	100.652
534.00	100.698
533.00	100.524
532.00	100.582
531.00	100.561
530.00	100.710
529.00	100.652
528.00	100.786
527.00	100.248
526.00	100.767
525.00	100.655
524.00	100.480
523.00	100.618
522.00	100.249
521.00	100.468
520.00	100.240
519.00	100.143
518.00	100.178
517.00	99.999
516.00	99.929
515.00	100.254
514.00	100.280
513.00	100.175
512.00	100.025
511.00	100.140
510.00	100.187
509.00	100.195
508.00	99.805
507.00	100.083
506.00	99.975
505.00	100.031
504.00	100.165
503.00	99.780
502.00	100.123
501.00	99.830
500.00	99.887
499.00	99.938
498.00	99.774
497.00	100.011
496.00	100.105
495.00	100.005
494.00	100.159
493.00	99.781
492.00	99.824
491.00	100.020
490.00	100.082
489.00	99.940
488.00	100.021
487.00	100.138
486.00	100.190
485.00	100.018
484.00	99.997
483.00	100.025
482.00	100.131
481.00	99.919
480.00	100.084
479.00	100.353
478.00	100.179
477.00	100.104
476.00	100.222
475.00	100.392
474.00	100.219
473.00	100.284
472.00	100.219
471.00	99.976
470.00	100.503
469.00	100.417
468.00	100.442
467.00	100.815
466.00	100.302
465.00	100.272
464.00	100.352
463.00	100.359
462.00	100.683
461.00	100.463
460.00	100.869
459.00	100.479
458.00	100.340
457.00	100.445
456.00	100.505
455.00	100.562
454.00	100.233
453.00	100.338
452.00	100.455
451.00	100.418
450.00	100.436
449.00	100.491
448.00	100.094
447.00	100.437
446.00	100.172
445.00	100.564
444.00	100.195
443.00	99.727
442.00	99.951
441.00	99.983
440.00	99.832
439.00	100.065
438.00	99.689
437.00	99.558
436.00	99.547
435.00	99.663
434.00	99.551
433.00	99.704
432.00	99.519
431.00	99.577
430.00	98.938
429.00	99.301
428.00	99.358
427.00	99.064
426.00	99.333
425.00	99.209
424.00	99.041
423.00	99.387
422.00	98.781
421.00	99.271
420.00	99.113
419.00	99.150
418.00	98.826
417.00	98.737
416.00	98.915
415.00	98.645
414.00	98.445
413.00	99.270
412.00	99.184
411.00	98.756
410.00	98.812
409.00	98.743
408.00	98.891
407.00	98.616
406.00	99.445
405.00	98.858
404.00	99.077
403.00	99.161
402.00	99.494
401.00	99.790
400.00	98.954
399.00	99.202
398.00	99.047
397.00	98.843
396.00	99.174
395.00	98.974
394.00	99.159
393.00	99.272
392.00	98.156
391.00	99.413
390.00	99.191
389.00	98.683
388.00	99.409
387.00	98.070
386.00	99.272
385.00	99.204
384.00	98.310
383.00	98.650
382.00	98.846
381.00	98.656
380.00	98.884
379.00	99.080
378.00	98.215
377.00	98.475
376.00	98.258
375.00	98.197
374.00	97.896
373.00	97.413
372.00	97.637
371.00	97.688
370.00	97.512
369.00	97.553
368.00	97.253
367.00	97.375
366.00	96.665
365.00	97.769
364.00	97.312
363.00	95.907
362.00	97.581
361.00	97.245
360.00	96.203
359.00	96.973
358.00	96.966
357.00	96.089
356.00	97.636
355.00	96.595
354.00	96.015
353.00	96.290
352.00	96.473
351.00	96.287
350.00	96.825
349.00	99.311
348.00	96.469
347.00	95.847
346.00	98.025
345.00	95.598
344.00	95.188
343.00	94.823
342.00	97.213
341.00	93.805
340.00	96.020
339.00	96.455
338.00	95.469
337.00	94.116
336.00	94.027
335.00	95.104
334.00	95.042
333.00	96.789
332.00	96.917
331.00	98.700
330.00	91.601
329.00	94.064
328.00	90.867
327.00	90.896
326.00	95.214
325.00	95.100
324.00	92.054
323.00	92.184
322.00	93.034
321.00	95.140
320.00	91.239
319.00	90.588
318.00	90.651
317.00	93.298
316.00	93.902
315.00	94.100
314.00	87.781
313.00	90.559
312.00	89.030
311.00	84.443
310.00	94.835
309.00	89.118
308.00	92.043
307.00	88.113
306.00	83.913
305.00	93.093
304.00	93.764
303.00	98.429
302.00	89.749
301.00	89.425
300.00	88.852

