ｻﾝﾌﾟﾙ:	'20190322.dat
ﾌｧｲﾙ名:	20190322023.UDS
分析日時:	00:44:45, 08/19/2019
ｵﾍﾟﾚｰﾀ:	Ikezawa
ｺﾒﾝﾄ:	'

光度計
ﾓﾃﾞﾙ:	U-4000形分光光度計
ｼﾘｱﾙ No.:	'
ROM Ver.:	5111 03

装置条件
測定ﾓｰﾄﾞ:	波長ｽｷｬﾝ
ﾃﾞｰﾀﾓｰﾄﾞ:	%T
開始:	900.00 nm
終了:	300.00 nm
ｽｷｬﾝｽﾋﾟｰﾄﾞ:	120(300) nm/min
ｻﾝﾌﾟﾘﾝｸﾞ間隔:	0.50 nm
ｽﾘｯﾄ:	3.00 nm
ﾎﾄﾏﾙ電圧:	自動制御
光源切換ﾓｰﾄﾞ:	自動切換
光源切換波長:	350.00 nm
ﾍﾞｰｽﾗｲﾝ設定:	ﾕｰｻﾞ 1
高分解能測定:	On
--- 近赤外 ---
ｽﾘｯﾄ:	1.00 nm
PbS感度:	1
検知器切換補正:	補正なし
検知器切換波長:	850 nm
--------------
ｾﾙ長:	10.0 mm

ﾋﾟｰｸ検出
検出方法:	Rectangular
感度:	1
しきい値:	0.0100

ﾋﾟｰｸ
ﾋﾟｰｸ No.	開始 (nm)	ﾋﾟｰｸ波長 (nm)	終了 (nm)	高さ (%T)	面積 (%T*nm)	ﾊﾞﾚｰ (nm)	ﾊﾞﾚｰ (%T)
1	900.00	871.00	867.00	-5065.410	-13122.779	867.00	10756.770
2	867.00	857.00	847.00	-1997.087	8847.319	847.00	104.189
3	847.00	841.50	839.50	93.354	771.475	839.50	97.602
4	839.50	835.00	833.50	94.230	624.441	833.50	97.391
5	833.50	724.50	722.00	74.456	9396.151	722.00	75.513
6	722.00	718.00	716.00	74.471	486.699	716.00	74.968
7	716.00	710.00	605.00	74.665	9440.237	605.00	99.792
8	605.00	528.50	473.00	76.226	11577.385	473.00	98.113
9	473.00	432.00	406.00	68.229	5368.419	406.00	83.606
10	406.00	337.50	330.00	0.593	2843.416	330.00	3.239
11	330.00	323.00	322.00	-2.817	9.443	322.00	4.954
12	322.00	316.50	303.00	-2.546	34.077	303.00	8.290

ﾃﾞｰﾀﾘｽﾄ
nm	%T
900.00	30.216
899.00	-307.201
898.00	377.500
897.00	23.261
896.00	15809.850
895.00	63.595
894.00	-5925.664
893.00	-1251.225
892.00	323.787
891.00	62.900
890.00	306.928
889.00	-126.055
888.00	-6330.394
887.00	82.556
886.00	-396.976
885.00	184.935
884.00	-41.992
883.00	-10.678
882.00	-4.155
881.00	-48.162
880.00	-54.111
879.00	-703.821
878.00	19.691
877.00	-173.684
876.00	477.733
875.00	33.926
874.00	463.384
873.00	-84.505
872.00	-51.701
871.00	-5065.410
870.00	154.918
869.00	-82.730
868.00	4.007
867.00	10756.770
866.00	968.724
865.00	281.112
864.00	209.598
863.00	-169.681
862.00	-32.837
861.00	48.512
860.00	-237.383
859.00	-661.341
858.00	-267.606
857.00	-1997.087
856.00	35.823
855.00	-130.981
854.00	1360.970
853.00	155.340
852.00	-229.440
851.00	-214.180
850.00	-2.976
849.00	99.113
848.00	95.035
847.00	104.189
846.00	97.376
845.00	94.693
844.00	98.286
843.00	94.788
842.00	93.746
841.00	95.834
840.00	97.219
839.00	96.170
838.00	96.673
837.00	94.933
836.00	95.757
835.00	94.230
834.00	95.166
833.00	94.840
832.00	96.138
831.00	95.128
830.00	94.637
829.00	94.146
828.00	93.815
827.00	95.014
826.00	93.413
825.00	93.065
824.00	94.184
823.00	94.114
822.00	93.357
821.00	93.701
820.00	92.732
819.00	92.203
818.00	92.144
817.00	92.941
816.00	91.397
815.00	91.772
814.00	91.744
813.00	91.521
812.00	90.114
811.00	90.574
810.00	90.681
809.00	89.471
808.00	90.219
807.00	89.883
806.00	89.600
805.00	89.027
804.00	88.422
803.00	89.136
802.00	88.882
801.00	88.367
800.00	87.157
799.00	87.938
798.00	87.777
797.00	87.789
796.00	87.642
795.00	87.140
794.00	86.494
793.00	86.788
792.00	86.854
791.00	86.357
790.00	86.333
789.00	85.938
788.00	85.575
787.00	84.912
786.00	85.234
785.00	84.960
784.00	84.664
783.00	84.263
782.00	84.287
781.00	83.721
780.00	83.669
779.00	83.671
778.00	83.014
777.00	83.361
776.00	82.483
775.00	83.024
774.00	82.345
773.00	82.275
772.00	81.925
771.00	81.481
770.00	81.706
769.00	81.509
768.00	80.914
767.00	80.846
766.00	80.534
765.00	80.486
764.00	80.199
763.00	79.700
762.00	80.314
761.00	79.130
760.00	79.795
759.00	79.137
758.00	79.177
757.00	78.902
756.00	78.948
755.00	78.702
754.00	78.831
753.00	78.125
752.00	78.465
751.00	78.112
750.00	77.952
749.00	77.758
748.00	77.431
747.00	77.574
746.00	77.234
745.00	77.030
744.00	76.518
743.00	76.557
742.00	76.513
741.00	76.589
740.00	76.499
739.00	76.843
738.00	76.088
737.00	76.008
736.00	76.094
735.00	76.183
734.00	75.909
733.00	75.740
732.00	75.400
731.00	75.523
730.00	75.567
729.00	75.052
728.00	75.326
727.00	75.345
726.00	75.007
725.00	74.983
724.00	74.967
723.00	75.126
722.00	75.513
721.00	74.940
720.00	74.764
719.00	74.938
718.00	74.471
717.00	74.919
716.00	74.968
715.00	74.931
714.00	74.904
713.00	74.868
712.00	75.274
711.00	74.879
710.00	74.665
709.00	75.156
708.00	74.984
707.00	74.870
706.00	74.950
705.00	75.415
704.00	75.034
703.00	75.362
702.00	75.010
701.00	75.231
700.00	75.135
699.00	75.591
698.00	75.422
697.00	75.622
696.00	75.857
695.00	75.644
694.00	75.776
693.00	75.643
692.00	75.964
691.00	76.058
690.00	76.190
689.00	76.603
688.00	76.532
687.00	76.481
686.00	76.896
685.00	76.786
684.00	77.004
683.00	77.230
682.00	77.329
681.00	77.376
680.00	77.681
679.00	78.105
678.00	78.216
677.00	78.445
676.00	78.746
675.00	78.992
674.00	79.036
673.00	79.448
672.00	79.441
671.00	79.631
670.00	79.868
669.00	80.215
668.00	80.529
667.00	80.881
666.00	80.991
665.00	81.267
664.00	81.541
663.00	81.848
662.00	82.054
661.00	82.387
660.00	82.594
659.00	82.824
658.00	83.289
657.00	83.641
656.00	83.873
655.00	84.150
654.00	84.685
653.00	84.874
652.00	85.199
651.00	85.401
650.00	85.639
649.00	86.050
648.00	86.513
647.00	86.917
646.00	87.481
645.00	87.787
644.00	88.053
643.00	88.343
642.00	88.914
641.00	88.972
640.00	89.812
639.00	89.774
638.00	90.313
637.00	91.038
636.00	90.994
635.00	91.703
634.00	91.985
633.00	92.268
632.00	92.864
631.00	93.086
630.00	93.616
629.00	93.863
628.00	94.359
627.00	94.815
626.00	95.128
625.00	95.279
624.00	95.700
623.00	96.020
622.00	96.341
621.00	96.400
620.00	96.821
619.00	97.243
618.00	97.543
617.00	97.865
616.00	98.020
615.00	98.128
614.00	98.437
613.00	98.658
612.00	98.924
611.00	99.015
610.00	99.192
609.00	99.246
608.00	99.276
607.00	99.443
606.00	99.586
605.00	99.792
604.00	99.720
603.00	99.775
602.00	99.596
601.00	99.697
600.00	99.480
599.00	99.419
598.00	99.401
597.00	99.246
596.00	99.430
595.00	99.067
594.00	98.931
593.00	98.924
592.00	98.433
591.00	98.402
590.00	97.878
589.00	97.870
588.00	97.495
587.00	97.231
586.00	96.971
585.00	96.627
584.00	96.214
583.00	95.855
582.00	95.641
581.00	95.037
580.00	94.582
579.00	93.955
578.00	93.755
577.00	93.516
576.00	92.896
575.00	92.621
574.00	92.034
573.00	91.775
572.00	90.944
571.00	90.573
570.00	90.066
569.00	89.513
568.00	89.148
567.00	88.621
566.00	88.164
565.00	87.488
564.00	87.212
563.00	86.642
562.00	86.024
561.00	85.635
560.00	85.110
559.00	84.761
558.00	84.223
557.00	83.850
556.00	83.394
555.00	82.821
554.00	82.498
553.00	81.991
552.00	81.673
551.00	81.234
550.00	80.973
549.00	80.265
548.00	80.262
547.00	79.693
546.00	79.449
545.00	79.269
544.00	78.981
543.00	78.460
542.00	78.310
541.00	78.172
540.00	77.748
539.00	77.586
538.00	77.248
537.00	77.280
536.00	76.988
535.00	76.928
534.00	76.778
533.00	76.726
532.00	76.564
531.00	76.542
530.00	76.408
529.00	76.461
528.00	76.454
527.00	76.272
526.00	76.348
525.00	76.469
524.00	76.585
523.00	76.653
522.00	76.706
521.00	76.962
520.00	76.992
519.00	77.219
518.00	77.359
517.00	77.717
516.00	77.937
515.00	78.185
514.00	78.339
513.00	78.759
512.00	79.340
511.00	79.833
510.00	79.980
509.00	80.403
508.00	80.641
507.00	81.252
506.00	81.781
505.00	82.306
504.00	82.993
503.00	83.282
502.00	83.856
501.00	84.508
500.00	85.064
499.00	85.515
498.00	86.233
497.00	86.734
496.00	87.589
495.00	87.993
494.00	88.725
493.00	89.481
492.00	90.045
491.00	90.888
490.00	91.461
489.00	91.932
488.00	92.476
487.00	93.391
486.00	94.053
485.00	94.490
484.00	95.094
483.00	95.462
482.00	95.933
481.00	96.298
480.00	96.732
479.00	96.880
478.00	97.226
477.00	97.830
476.00	97.654
475.00	97.938
474.00	98.100
473.00	98.113
472.00	97.969
471.00	97.701
470.00	97.538
469.00	96.984
468.00	96.394
467.00	95.962
466.00	95.370
465.00	94.689
464.00	93.790
463.00	92.960
462.00	91.869
461.00	91.326
460.00	89.945
459.00	88.803
458.00	88.013
457.00	86.819
456.00	85.912
455.00	84.572
454.00	83.640
453.00	82.529
452.00	80.926
451.00	80.263
450.00	79.304
449.00	78.078
448.00	77.098
447.00	76.108
446.00	75.466
445.00	74.427
444.00	73.592
443.00	72.773
442.00	72.130
441.00	71.500
440.00	71.071
439.00	70.159
438.00	69.934
437.00	69.432
436.00	68.857
435.00	68.843
434.00	68.266
433.00	68.299
432.00	68.229
431.00	68.280
430.00	68.345
429.00	68.305
428.00	68.447
427.00	69.011
426.00	69.125
425.00	69.784
424.00	70.269
423.00	70.675
422.00	71.367
421.00	71.666
420.00	72.872
419.00	73.625
418.00	74.532
417.00	75.256
416.00	76.240
415.00	77.585
414.00	77.890
413.00	79.407
412.00	80.164
411.00	81.064
410.00	81.701
409.00	82.551
408.00	83.077
407.00	83.588
406.00	83.606
405.00	83.598
404.00	82.971
403.00	82.124
402.00	82.015
401.00	80.877
400.00	79.564
399.00	78.101
398.00	75.377
397.00	74.143
396.00	71.981
395.00	70.717
394.00	68.477
393.00	66.159
392.00	63.674
391.00	61.506
390.00	59.406
389.00	58.260
388.00	55.932
387.00	54.838
386.00	52.684
385.00	51.730
384.00	50.091
383.00	49.030
382.00	47.856
381.00	47.802
380.00	46.068
379.00	45.519
378.00	44.809
377.00	44.318
376.00	44.670
375.00	44.008
374.00	44.039
373.00	43.595
372.00	43.576
371.00	42.070
370.00	41.570
369.00	41.493
368.00	40.531
367.00	39.712
366.00	38.713
365.00	36.569
364.00	34.939
363.00	32.801
362.00	31.130
361.00	29.067
360.00	28.722
359.00	26.288
358.00	23.592
357.00	22.287
356.00	19.617
355.00	19.459
354.00	17.748
353.00	16.351
352.00	15.359
351.00	13.678
350.00	12.692
349.00	11.299
348.00	9.054
347.00	7.193
346.00	12.907
345.00	7.339
344.00	6.502
343.00	8.876
342.00	7.222
341.00	6.681
340.00	6.406
339.00	2.919
338.00	2.645
337.00	2.557
336.00	1.013
335.00	3.638
334.00	5.928
333.00	2.069
332.00	2.114
331.00	2.153
330.00	3.239
329.00	1.776
328.00	0.943
327.00	1.894
326.00	-0.302
325.00	-0.381
324.00	2.022
323.00	-2.817
322.00	4.954
321.00	0.476
320.00	0.343
319.00	0.389
318.00	-2.044
317.00	0.533
316.00	0.291
315.00	0.068
314.00	1.862
313.00	1.696
312.00	0.879
311.00	-0.766
310.00	-3.115
309.00	2.051
308.00	3.884
307.00	0.877
306.00	3.471
305.00	6.508
304.00	-0.622
303.00	8.290
302.00	3.010
301.00	-1.107
300.00	2.949

