ｻﾝﾌﾟﾙ:	'20190322.dat
ﾌｧｲﾙ名:	20190322022.UDS
分析日時:	00:28:46, 08/19/2019
ｵﾍﾟﾚｰﾀ:	Ikezawa
ｺﾒﾝﾄ:	'

光度計
ﾓﾃﾞﾙ:	U-4000形分光光度計
ｼﾘｱﾙ No.:	'
ROM Ver.:	5111 03

装置条件
測定ﾓｰﾄﾞ:	波長ｽｷｬﾝ
ﾃﾞｰﾀﾓｰﾄﾞ:	%T
開始:	900.00 nm
終了:	300.00 nm
ｽｷｬﾝｽﾋﾟｰﾄﾞ:	120(300) nm/min
ｻﾝﾌﾟﾘﾝｸﾞ間隔:	0.50 nm
ｽﾘｯﾄ:	3.00 nm
ﾎﾄﾏﾙ電圧:	自動制御
光源切換ﾓｰﾄﾞ:	自動切換
光源切換波長:	350.00 nm
ﾍﾞｰｽﾗｲﾝ設定:	ﾕｰｻﾞ 1
高分解能測定:	On
--- 近赤外 ---
ｽﾘｯﾄ:	1.00 nm
PbS感度:	1
検知器切換補正:	補正なし
検知器切換波長:	850 nm
--------------
ｾﾙ長:	10.0 mm

ﾋﾟｰｸ検出
検出方法:	Rectangular
感度:	1
しきい値:	0.0100

ﾋﾟｰｸ
ﾋﾟｰｸ No.	開始 (nm)	ﾋﾟｰｸ波長 (nm)	終了 (nm)	高さ (%T)	面積 (%T*nm)	ﾊﾞﾚｰ (nm)	ﾊﾞﾚｰ (%T)
1	900.00	893.00	889.50	-37596.420	-22324.606	889.50	293.284
2	889.50	885.50	883.50	-133.329	1046.995	883.50	1448.899
3	883.50	881.00	879.50	-127.418	6250.522	879.50	253.447
4	879.50	876.00	875.00	-191.463	1354.889	875.00	2517.854
5	875.00	872.00	858.50	-1089.307	27916.488	858.50	2242.052
6	858.50	857.00	844.00	-561.331	3206.611	844.00	93.203
7	844.00	841.00	834.50	86.542	886.527	834.50	89.646
8	834.50	724.50	722.50	69.417	8774.999	722.50	69.817
9	722.50	711.50	600.50	68.981	9553.522	600.50	92.236
10	600.50	529.50	474.00	70.338	10189.812	474.00	90.512
11	474.00	428.50	404.50	62.875	5170.468	404.50	76.949
12	404.50	338.50	337.50	1.164	2524.273	337.50	4.312
13	337.50	330.50	324.50	-2.807	24.923	324.50	3.789
14	324.50	314.50	307.00	-1.838	21.369	307.00	3.979

ﾃﾞｰﾀﾘｽﾄ
nm	%T
900.00	138.383
899.00	-34.411
898.00	-7759.240
897.00	-2.640
896.00	2180.880
895.00	-292.316
894.00	-16.265
893.00	-37596.420
892.00	52.961
891.00	453.621
890.00	-866.927
889.00	100.899
888.00	-254.388
887.00	149.111
886.00	-78.355
885.00	244.013
884.00	13.553
883.00	-20.377
882.00	3.058
881.00	-127.418
880.00	13.637
879.00	163.337
878.00	19.428
877.00	120.678
876.00	-191.463
875.00	2517.854
874.00	759.115
873.00	-31.733
872.00	-1089.307
871.00	55.133
870.00	6476.501
869.00	1434.718
868.00	-14.582
867.00	-167.599
866.00	91.898
865.00	-477.409
864.00	564.538
863.00	-8.947
862.00	-208.772
861.00	28.303
860.00	158.379
859.00	-23.217
858.00	246.156
857.00	-561.331
856.00	-93.219
855.00	-61.859
854.00	423.129
853.00	447.171
852.00	107.443
851.00	-2752.816
850.00	5660.164
849.00	89.141
848.00	87.868
847.00	91.511
846.00	93.187
845.00	89.861
844.00	93.203
843.00	92.412
842.00	86.901
841.00	86.542
840.00	88.674
839.00	87.524
838.00	89.772
837.00	89.211
836.00	91.824
835.00	86.941
834.00	89.484
833.00	86.865
832.00	87.805
831.00	87.036
830.00	87.864
829.00	88.493
828.00	86.676
827.00	87.984
826.00	85.443
825.00	86.378
824.00	86.637
823.00	86.269
822.00	86.843
821.00	86.180
820.00	85.483
819.00	86.866
818.00	86.662
817.00	85.156
816.00	85.788
815.00	84.098
814.00	84.336
813.00	84.930
812.00	84.062
811.00	84.015
810.00	83.808
809.00	84.088
808.00	83.841
807.00	83.521
806.00	83.171
805.00	83.892
804.00	82.592
803.00	82.651
802.00	81.503
801.00	81.799
800.00	81.795
799.00	82.003
798.00	81.536
797.00	81.583
796.00	80.867
795.00	80.956
794.00	81.138
793.00	80.191
792.00	80.437
791.00	80.114
790.00	79.607
789.00	79.426
788.00	79.483
787.00	79.253
786.00	78.847
785.00	79.042
784.00	78.870
783.00	78.431
782.00	78.214
781.00	77.468
780.00	77.910
779.00	77.326
778.00	77.432
777.00	77.324
776.00	77.300
775.00	77.159
774.00	77.003
773.00	76.208
772.00	76.373
771.00	75.901
770.00	76.047
769.00	75.649
768.00	75.450
767.00	75.125
766.00	74.765
765.00	75.259
764.00	74.347
763.00	74.208
762.00	74.279
761.00	74.156
760.00	74.343
759.00	74.018
758.00	73.581
757.00	73.303
756.00	73.460
755.00	72.690
754.00	73.219
753.00	72.898
752.00	72.778
751.00	72.856
750.00	72.337
749.00	72.301
748.00	72.229
747.00	72.047
746.00	72.021
745.00	71.763
744.00	71.266
743.00	71.659
742.00	71.438
741.00	71.183
740.00	71.162
739.00	71.208
738.00	70.607
737.00	70.448
736.00	70.219
735.00	70.254
734.00	70.126
733.00	70.169
732.00	70.005
731.00	70.154
730.00	69.976
729.00	69.962
728.00	69.977
727.00	69.726
726.00	69.561
725.00	69.448
724.00	69.757
723.00	69.611
722.00	69.589
721.00	69.490
720.00	69.422
719.00	69.442
718.00	69.227
717.00	69.395
716.00	69.266
715.00	68.928
714.00	69.447
713.00	69.453
712.00	69.211
711.00	69.194
710.00	69.199
709.00	69.465
708.00	69.074
707.00	69.322
706.00	69.254
705.00	69.533
704.00	69.422
703.00	69.601
702.00	69.652
701.00	69.658
700.00	69.379
699.00	69.588
698.00	69.648
697.00	69.710
696.00	69.648
695.00	69.866
694.00	70.228
693.00	70.136
692.00	70.190
691.00	70.211
690.00	70.338
689.00	70.321
688.00	70.577
687.00	70.639
686.00	70.762
685.00	70.902
684.00	71.279
683.00	71.163
682.00	71.249
681.00	71.553
680.00	71.367
679.00	71.862
678.00	72.357
677.00	72.099
676.00	72.255
675.00	72.692
674.00	72.863
673.00	72.835
672.00	73.405
671.00	73.305
670.00	73.558
669.00	73.619
668.00	74.119
667.00	74.224
666.00	74.667
665.00	74.642
664.00	74.872
663.00	75.279
662.00	75.412
661.00	75.545
660.00	75.947
659.00	76.028
658.00	76.451
657.00	76.763
656.00	77.082
655.00	77.300
654.00	77.726
653.00	77.925
652.00	78.201
651.00	78.701
650.00	78.640
649.00	79.098
648.00	79.355
647.00	79.796
646.00	80.188
645.00	80.485
644.00	80.913
643.00	81.430
642.00	81.288
641.00	81.937
640.00	82.181
639.00	82.521
638.00	82.855
637.00	83.301
636.00	83.459
635.00	84.042
634.00	84.280
633.00	84.820
632.00	85.232
631.00	85.566
630.00	85.923
629.00	86.201
628.00	86.679
627.00	86.893
626.00	87.181
625.00	87.605
624.00	87.921
623.00	88.243
622.00	88.424
621.00	88.982
620.00	89.305
619.00	89.452
618.00	89.512
617.00	89.963
616.00	90.254
615.00	90.531
614.00	90.791
613.00	90.827
612.00	90.944
611.00	91.059
610.00	91.408
609.00	91.410
608.00	91.771
607.00	91.732
606.00	91.879
605.00	91.698
604.00	92.017
603.00	92.077
602.00	92.136
601.00	92.205
600.00	92.154
599.00	92.210
598.00	91.923
597.00	91.783
596.00	91.898
595.00	91.651
594.00	91.683
593.00	91.454
592.00	91.308
591.00	91.130
590.00	90.715
589.00	90.556
588.00	90.227
587.00	90.164
586.00	90.026
585.00	89.548
584.00	89.153
583.00	89.002
582.00	88.640
581.00	88.344
580.00	88.195
579.00	87.540
578.00	87.215
577.00	86.877
576.00	86.316
575.00	86.248
574.00	85.437
573.00	85.107
572.00	84.771
571.00	84.220
570.00	83.822
569.00	83.415
568.00	82.934
567.00	82.304
566.00	81.887
565.00	81.676
564.00	81.191
563.00	80.529
562.00	80.150
561.00	79.914
560.00	79.305
559.00	78.825
558.00	78.410
557.00	77.927
556.00	77.445
555.00	77.107
554.00	76.670
553.00	76.598
552.00	75.940
551.00	75.487
550.00	75.194
549.00	74.787
548.00	74.427
547.00	74.125
546.00	73.622
545.00	73.293
544.00	73.008
543.00	72.737
542.00	72.736
541.00	72.286
540.00	72.172
539.00	71.930
538.00	71.694
537.00	71.429
536.00	71.372
535.00	71.282
534.00	71.068
533.00	70.869
532.00	70.749
531.00	70.822
530.00	70.633
529.00	70.599
528.00	70.523
527.00	70.553
526.00	70.621
525.00	70.533
524.00	70.676
523.00	70.816
522.00	70.580
521.00	70.790
520.00	71.100
519.00	71.083
518.00	71.343
517.00	71.577
516.00	71.786
515.00	71.759
514.00	72.171
513.00	72.515
512.00	72.789
511.00	73.024
510.00	73.373
509.00	73.987
508.00	74.169
507.00	74.689
506.00	74.786
505.00	75.397
504.00	75.844
503.00	76.419
502.00	76.742
501.00	77.452
500.00	77.827
499.00	78.229
498.00	78.960
497.00	79.486
496.00	80.238
495.00	80.598
494.00	81.205
493.00	81.862
492.00	82.527
491.00	83.074
490.00	83.339
489.00	84.098
488.00	85.010
487.00	85.273
486.00	86.045
485.00	86.322
484.00	87.076
483.00	87.540
482.00	87.858
481.00	88.371
480.00	89.087
479.00	89.173
478.00	89.552
477.00	89.870
476.00	89.845
475.00	90.245
474.00	90.512
473.00	90.429
472.00	90.140
471.00	90.176
470.00	90.347
469.00	89.841
468.00	89.510
467.00	89.267
466.00	88.519
465.00	88.001
464.00	87.280
463.00	86.589
462.00	85.671
461.00	85.044
460.00	84.116
459.00	83.100
458.00	82.402
457.00	81.202
456.00	80.035
455.00	79.340
454.00	78.096
453.00	77.066
452.00	75.779
451.00	75.101
450.00	74.062
449.00	73.073
448.00	72.032
447.00	71.107
446.00	70.193
445.00	69.270
444.00	68.755
443.00	67.956
442.00	67.117
441.00	66.382
440.00	65.898
439.00	65.376
438.00	64.635
437.00	64.423
436.00	64.074
435.00	63.882
434.00	63.517
433.00	63.440
432.00	63.189
431.00	63.104
430.00	62.913
429.00	63.204
428.00	63.271
427.00	63.172
426.00	63.618
425.00	64.176
424.00	64.359
423.00	64.686
422.00	65.020
421.00	65.711
420.00	66.369
419.00	66.871
418.00	68.059
417.00	68.792
416.00	69.344
415.00	70.622
414.00	71.264
413.00	72.053
412.00	73.084
411.00	73.693
410.00	74.592
409.00	75.173
408.00	75.424
407.00	75.938
406.00	76.202
405.00	76.526
404.00	76.190
403.00	76.449
402.00	75.747
401.00	75.103
400.00	73.466
399.00	72.723
398.00	71.201
397.00	69.602
396.00	68.281
395.00	65.902
394.00	64.232
393.00	62.154
392.00	60.496
391.00	57.898
390.00	56.399
389.00	54.284
388.00	53.134
387.00	50.941
386.00	49.293
385.00	48.439
384.00	46.959
383.00	46.314
382.00	44.557
381.00	43.694
380.00	43.415
379.00	42.066
378.00	41.626
377.00	41.608
376.00	40.686
375.00	40.997
374.00	40.256
373.00	40.325
372.00	39.922
371.00	39.208
370.00	38.630
369.00	38.710
368.00	37.381
367.00	36.250
366.00	35.862
365.00	34.592
364.00	32.341
363.00	31.673
362.00	29.791
361.00	27.784
360.00	26.051
359.00	23.568
358.00	22.411
357.00	21.224
356.00	19.957
355.00	17.888
354.00	15.986
353.00	16.007
352.00	14.185
351.00	15.158
350.00	12.390
349.00	12.415
348.00	12.003
347.00	8.423
346.00	8.348
345.00	11.308
344.00	8.296
343.00	8.226
342.00	4.450
341.00	5.625
340.00	1.661
339.00	2.401
338.00	3.766
337.00	3.549
336.00	3.196
335.00	2.154
334.00	6.728
333.00	1.035
332.00	0.954
331.00	3.992
330.00	2.179
329.00	2.727
328.00	0.104
327.00	3.370
326.00	0.190
325.00	1.568
324.00	2.494
323.00	2.932
322.00	-3.494
321.00	-0.062
320.00	1.313
319.00	1.812
318.00	0.485
317.00	-1.255
316.00	0.398
315.00	1.122
314.00	1.723
313.00	-0.514
312.00	2.556
311.00	2.664
310.00	-0.448
309.00	4.024
308.00	3.623
307.00	3.979
306.00	1.192
305.00	3.443
304.00	1.892
303.00	-0.350
302.00	1.958
301.00	2.909
300.00	0.611

